f1y01,f1y02,f1y03,f1y04,f1y05,f1y06,f1y07,f1y08,f1y09,f1y10
8.724,8.044,8.096,8.268,7.556,8.808,7.772,7.656,8.26,8.008
8.72,8.06,8.024,8.324,7.872,8.86,7.78,7.86,8.28,7.996
8.748,8.016,7.984,8.256,8.276,8.836,7.78,8.264,8.008,8.02
8.872,8.012,8.064,8.236,8.112,8.692,7.788,8.504,8.128,8.02
8.968,8.036,8.092,8.304,7.548,8.636,7.76,9.004,8.172,8.02
8.944,8.056,8.032,8.368,7.768,8.656,7.788,9.616,8.208,8.028
8.976,8.036,7.944,8.292,8.188,8.596,7.808,10.284,8.148,8.052
9.08,7.98,8.024,8.268,8.22,8.468,7.812,10.732,8.072,8.068
9.124,8.024,8.1,8.34,7.628,8.408,7.804,10.656,8.228,8.072
9.124,8.068,8.02,8.392,7.692,8.448,7.788,9.76,8.444,8.052
9.116,8.032,7.964,8.396,8.188,8.412,7.804,8.94,8.2,8.092
9.148,7.98,8.048,8.352,8.324,8.304,7.82,8.412,8,8.124
9.208,8,8.108,8.4,7.756,8.22,7.776,8.076,8.088,8.152
9.124,8.052,8.044,8.432,7.588,8.244,7.78,7.96,8.092,8.184
9.004,8.044,7.956,8.46,8.124,8.24,7.812,8.044,8.016,8.18
8.94,8.008,7.996,8.404,8.392,8.184,7.828,8.044,8.06,8.184
8.912,8,8.064,8.44,7.92,8.108,7.804,8.056,8.268,8.16
8.78,8.032,8.068,8.528,7.656,8.132,7.78,8.116,8.336,8.136
8.628,8.04,7.944,8.568,8.156,8.176,7.816,8.252,8.184,8.088
8.532,8.016,7.996,8.504,8.428,8.144,7.8,8.256,8.164,8.088
8.496,7.996,8.084,8.544,8.008,8.088,7.772,8.08,8.168,8.08
8.408,8.024,8.072,8.628,7.6,8.076,7.772,8.048,8.252,8.04
8.264,8.036,7.98,8.688,8.092,8.112,7.776,8.16,8.08,8.012
8.208,8.004,7.968,8.628,8.44,8.128,7.788,8.232,7.996,8.032
8.212,7.972,8.032,8.68,8.144,8.056,7.784,8.108,8.216,7.992
8.148,8.02,8.08,8.768,7.656,8.056,7.784,8.048,8.484,7.976
8.064,8.032,7.992,8.824,7.996,8.1,7.792,8.14,8.296,7.948
8.036,8.008,7.952,8.808,8.384,8.128,7.784,8.236,8.132,7.964
8.092,7.996,8.02,8.824,8.22,8.064,7.784,8.096,8.148,7.98
8.068,8,8.1,8.876,7.664,8.028,7.772,8.076,8.332,7.948
7.992,8.04,8.02,9.032,7.888,8.08,7.776,8.136,8.368,7.928
7.972,7.996,7.936,8.98,8.352,8.1,7.776,8.26,8.188,7.928
8.028,7.972,8.012,9.048,8.36,8.052,7.772,8.136,8.2,7.968
8.04,8.004,8.092,9.172,7.764,8.008,7.748,8.068,8.404,7.956
8,8.044,8.04,9.236,7.728,8.112,7.784,8.104,8.408,7.964
7.972,8.012,7.936,9.232,8.228,8.112,7.78,8.248,8.304,7.94
7.976,7.976,7.996,9.252,8.312,8.056,7.776,8.184,8.324,7.964
8.04,7.972,8.068,9.34,7.744,8.028,7.748,8.072,8.472,7.976
8.008,8.024,8.024,9.408,7.54,8.108,7.764,8.128,8.524,7.96
7.964,8,7.956,9.464,8.1,8.124,7.772,8.28,8.324,7.928
7.956,7.988,7.972,9.42,8.332,8.084,7.776,8.228,8.34,7.888
8.036,7.968,8.036,9.488,7.84,8.056,7.776,8.12,8.464,7.796
7.996,7.992,8.056,9.552,7.504,8.104,7.744,8.12,8.472,7.808
7.976,8.008,7.96,9.532,8.048,8.144,7.772,8.256,8.316,8.008
7.968,7.972,7.968,9.452,8.344,8.12,7.772,8.3,8.224,8.38
8.036,7.976,8.052,9.436,7.924,8.056,7.756,8.172,8.288,8.948
8.028,8.008,8.028,9.452,7.492,8.084,7.744,8.16,8.36,9.564
7.984,8.024,7.96,9.416,7.944,8.124,7.772,8.272,8.232,10.196
7.94,7.976,7.944,9.3,8.252,8.128,7.796,8.348,8.108,10.8
8.036,7.924,8.048,9.216,7.928,8.068,7.788,8.196,8.228,11.124
8.008,7.996,8.06,9.196,7.376,8.072,7.752,8.2,8.356,11.196
7.96,8.032,7.956,9.124,7.752,8.164,7.752,8.288,8.296,10.788
7.964,7.992,7.944,8.94,8.24,8.136,7.764,8.4,8.056,9.648
8.04,7.936,8.036,8.836,8.428,8.088,7.768,8.252,8.028,8.52
8.032,7.968,8.064,8.784,8.66,8.052,7.744,8.224,8.16,7.94
7.988,8.008,7.988,8.724,9.768,8.12,7.748,8.316,8.156,7.74
7.988,7.98,7.94,8.6,11.008,8.128,7.8,8.46,7.988,7.768
8.02,7.952,8.036,8.476,11.416,8.084,7.8,8.348,8.076,7.876
8.064,7.952,8.132,8.476,10.484,8.068,7.768,8.272,8.224,7.912
7.98,8,8.088,8.424,9.828,8.132,7.768,8.356,8.2,7.96
7.968,7.976,8.016,8.34,9.496,8.144,7.784,8.492,8.028,8.032
7.992,7.956,8.088,8.256,8.844,8.072,7.776,8.432,8.084,8.036
8.036,7.964,8.176,8.26,7.752,8.056,7.768,8.356,8.216,7.992
7.996,8.068,8.132,8.252,7.328,8.1,7.78,8.428,8.216,8.004
7.956,8.008,8.076,8.18,7.676,8.148,7.788,8.576,8.036,7.996
7.956,7.96,8.152,8.124,7.884,8.088,7.772,8.564,8.012,7.996
8.024,7.94,8.292,8.124,7.536,8.064,7.772,8.488,8.108,7.996
8.016,7.996,8.296,8.148,7.348,8.124,7.772,8.548,8.136,7.98
7.952,8.008,8.2,8.12,8.076,8.156,7.78,8.676,8.08,7.98
7.952,7.964,8.156,8,8.496,8.108,7.78,8.724,8.24,8.008
8.02,7.948,8.252,8.048,8.112,8.076,7.768,8.636,8.708,8.02
8.016,7.992,8.256,8.08,7.668,8.088,7.764,8.66,9.188,8
7.928,8.024,8.172,8.08,8.132,8.128,7.792,8.768,9.568,8.008
7.936,7.976,8.112,8.016,8.476,8.124,7.824,8.864,10.024,8.008
8.008,7.944,8.2,8.008,8.188,8.064,7.8,8.756,11.004,8.024
8.024,7.964,8.22,8.076,7.672,8.068,7.756,8.748,11.52,8.004
7.936,8.008,8.144,8.076,8.072,8.152,7.792,8.88,10.516,8.008
7.944,7.988,8.084,8,8.456,8.144,7.8,9.02,9.088,8.04
7.992,7.936,8.116,7.996,8.292,8.06,7.776,8.908,8.58,8.032
8.008,7.968,8.156,8.072,7.728,8.032,7.768,8.864,8.48,8.036
7.956,7.976,8.028,8.08,7.98,8.116,7.8,8.976,8.412,8.024
7.896,7.956,7.936,8.052,8.44,8.144,7.808,9.12,8.272,8.044
7.988,7.956,7.996,7.992,8.416,8.096,7.788,8.992,8.34,8.052
7.992,7.98,8.052,8.072,7.876,8.056,7.808,8.864,8.452,8.072
7.952,8.008,8.008,8.116,7.888,8.104,7.764,8.892,8.432,8.068
7.96,7.976,7.912,8.072,8.424,8.14,7.784,8.968,8.244,8.08
7.948,7.94,7.948,8.012,8.58,8.076,7.796,8.824,8.16,8.072
8.012,7.964,8.052,8.048,8.028,8.02,7.776,8.648,8.216,8.104
7.956,8.012,7.992,8.088,7.816,8.076,7.796,8.616,8.24,8.096
7.944,7.996,7.896,8.076,8.388,8.152,7.8,8.676,8.2,8.112
7.928,7.944,7.932,8.032,8.652,8.084,7.812,8.564,8.204,8.128
7.984,7.924,8.036,8.06,8.16,8.016,7.792,8.384,8.308,8.156
7.98,7.976,8.028,8.1,7.82,8.112,7.804,8.332,8.356,8.156
7.916,7.996,7.924,8.084,8.396,8.156,7.82,8.376,8.228,8.172
7.924,7.976,7.928,8.04,8.708,8.112,7.856,8.324,8.02,8.196
8.004,7.928,8.032,8.028,8.312,8.064,7.824,8.152,8.156,8.208
7.96,7.96,8.02,8.06,7.844,8.088,7.836,8.116,8.24,8.208
7.892,8.004,7.94,8.104,8.36,8.128,7.852,8.18,8.176,8.24
7.904,7.948,7.936,7.988,8.736,8.116,7.828,8.252,8.02,8.248
7.992,7.94,8.008,8.016,8.44,8.076,7.832,8.108,8.232,8.264
7.992,7.984,8.032,8.052,7.964,8.052,7.808,8.064,8.348,8.332
7.924,7.992,7.96,8.068,8.348,8.16,7.836,8.12,8.272,8.324
7.936,7.968,7.904,8.008,8.78,8.136,7.836,8.216,8.1,8.372
7.988,7.94,8,8.004,8.64,8.084,7.82,8.08,8.232,8.432
7.984,7.988,8.044,8.056,8.14,8.056,7.816,8.008,8.364,8.44
7.928,8.024,7.98,8.056,8.34,8.16,7.852,8.088,8.264,8.468
7.916,7.972,7.932,8.036,8.816,8.14,7.856,8.196,8.184,8.5
7.972,7.932,7.988,7.98,8.844,8.088,7.844,8.064,8.284,8.56
7.988,7.964,8.032,8.016,8.356,8.052,7.812,7.996,8.336,8.604
7.964,8,7.956,8.056,8.34,8.116,7.84,8.052,8.34,8.632
7.92,7.992,7.868,8.044,8.9,8.168,7.856,8.184,8.184,8.676
7.976,7.972,7.972,7.964,9.092,8.1,7.824,8.084,8.196,8.716
8.068,7.956,8.332,8.004,8.612,8.06,7.824,7.972,8.428,8.744
8.032,8,8.684,8.036,8.416,8.136,7.844,8.048,8.672,8.764
8.012,8.004,9.18,8.008,8.996,8.148,7.86,8.156,8.236,8.76
7.996,7.968,9.872,7.936,9.316,8.108,7.86,8.116,8.008,8.756
8.104,7.928,10.824,7.992,8.872,8.06,7.82,8,8.368,8.756
8.116,8,10.964,8.036,8.52,8.116,7.852,8.044,8.52,8.704
8.108,8.008,9.884,8.036,9.12,8.172,7.848,8.152,8.344,8.66
8.132,8,9.312,7.944,9.516,8.16,7.856,8.152,8.232,8.62
8.184,8.024,8.988,7.964,9.128,8.072,7.836,8.048,8.268,8.552
8.136,8.072,8.492,8.016,8.708,8.1,7.804,8.028,8.5,8.496
8.052,8.084,8,8.028,9.252,8.148,7.832,8.124,8.512,8.416
8.032,8.016,7.648,7.972,9.616,8.16,7.868,8.188,8.4,8.38
8.092,8.016,7.628,7.956,9.308,8.084,7.84,8.04,8.464,8.336
8.1,8.1,7.864,8.02,8.844,8.076,7.824,8.024,8.696,8.284
8.032,8.16,7.976,8.028,9.176,8.164,7.868,8.108,8.388,8.208
7.96,8.136,8.024,7.984,9.564,8.152,7.884,8.192,8.276,8.18
8,8.076,8.14,7.924,9.336,8.068,7.892,8.04,8.528,8.148
7.988,8.088,8.204,7.98,8.712,8.052,7.948,8.012,8.752,8.112
7.888,8.116,8.136,8.008,8.828,8.152,8.032,8.088,8.648,8.096
7.868,8.04,8.028,7.988,9.172,8.152,8.092,8.216,8.452,8.056
7.896,8,8.116,7.944,9.06,8.104,8.072,8.088,8.54,8.056
7.948,8.016,8.18,7.996,8.404,8.072,8.004,8,8.78,8.06
7.904,8.044,8.132,8.032,8.288,8.148,7.992,8.064,8.896,8.044
7.876,8.024,8.032,7.952,8.7,8.184,8.004,8.172,8.636,8.04
7.884,7.98,8.1,7.928,8.788,8.116,8,8.116,8.68,8.036
7.912,7.964,8.184,7.964,8.184,8.088,8,8.012,8.86,8.032
7.88,8,8.164,7.988,7.864,8.124,7.988,8.06,8.852,8.016
7.86,7.948,8.048,7.984,8.372,8.164,7.992,8.164,8.676,8.004
7.864,7.916,8.076,7.92,8.584,8.108,7.948,8.108,8.736,8.02
7.952,7.896,8.18,7.964,8.044,8.064,7.88,7.98,8.956,8.052
7.916,7.972,8.152,7.98,7.604,8.124,7.848,8.012,8.98,8.036
7.76,7.96,8.092,7.992,8.176,8.18,7.884,8.132,8.6,8.04
7.792,7.916,8.076,7.928,8.448,8.16,7.892,8.136,8.44,8.044
8.08,7.912,8.204,7.94,8.036,8.104,7.884,7.996,8.528,8.036
8.492,7.96,8.188,7.976,7.528,8.128,7.884,7.972,8.628,8.036
8.944,7.984,8.124,7.968,8.048,8.18,7.88,8.092,8.532,8.016
9.604,7.928,8.128,7.928,8.38,8.184,7.876,8.168,8.38,8.036
10.42,7.872,8.2,7.912,8.044,8.128,7.804,7.996,8.488,8.048
11.008,7.856,8.248,7.992,7.548,8.096,7.796,7.964,8.568,8.048
11.1,7.812,8.192,8.004,7.908,8.2,7.764,8.084,8.308,8.048
10.192,7.816,8.128,7.96,8.32,8.168,7.78,8.156,8.096,8.04
8.956,7.92,8.24,7.9,8.148,8.108,7.784,8.024,8.148,8.052
8.18,8.26,8.276,7.964,7.632,8.108,7.784,7.964,8.316,8.028
7.772,8.732,8.236,7.98,7.78,8.176,7.784,8.012,8.316,8.036
7.768,9.28,8.168,7.968,8.24,8.18,7.8,8.136,8.128,8.036
7.86,9.9,8.256,7.924,8.268,8.12,7.776,8.012,8.112,8.048
7.916,10.244,8.352,7.952,7.712,8.096,7.776,7.928,8.26,8.036
7.94,10.016,8.324,8.008,7.652,8.184,7.756,8.008,8.308,8.048
7.96,9.384,8.236,7.976,8.188,8.188,7.776,8.12,8.12,8.008
7.996,8.872,8.288,7.92,8.356,8.14,7.808,8.036,8.128,8.032
8.072,8.428,8.404,7.96,7.828,8.096,7.768,7.92,8.308,8.04
8.008,7.968,8.388,8.004,7.568,8.18,7.78,8,8.348,8.024
7.964,7.768,8.344,7.976,8.148,8.208,7.796,8.1,8.04,8.024
7.968,7.808,8.384,7.916,8.408,8.192,7.792,8.048,8.036,8.032
8.04,7.892,8.5,7.948,7.9,8.192,7.776,7.932,8.14,8.04
8,8.02,8.532,7.988,7.516,8.22,7.772,7.944,8.256,8.044
7.956,8.084,8.448,7.972,8.056,8.296,7.804,8.088,8.104,8.02
7.992,8.032,8.476,7.928,8.424,8.268,7.808,8.088,8.052,8.024
8.06,8.016,8.632,7.944,7.98,8.24,7.796,7.928,8.172,8.04
8.048,8.028,8.672,7.972,7.52,8.284,7.772,7.932,8.28,8.016
7.988,8.08,8.648,8,8.032,8.348,7.792,8.068,8.2,8.008
8.012,8.044,8.676,7.944,8.388,8.348,7.836,8.116,8.088,8.016
8.072,8.008,8.784,7.94,8.036,8.284,7.792,7.956,8.152,8.044
8.076,8.032,8.868,7.972,7.548,8.288,7.824,7.94,8.348,8.016
8.036,8.06,8.88,8.004,7.904,8.384,7.816,8.032,8.192,8.02
8.044,8.032,8.872,7.936,8.34,8.34,7.816,8.116,8.088,8.024
8.08,7.996,9.004,7.932,8.148,8.252,7.764,7.96,8.144,8.032
8.108,8.048,9.108,7.964,7.656,8.204,7.664,7.936,8.236,8.016
8.068,8.064,9.076,8.012,7.784,8.288,7.632,7.996,8.236,8.004
8.076,8.056,9.036,7.956,8.276,8.268,7.764,8.116,8.052,8.024
8.124,8,9.164,7.924,8.244,8.196,8.148,7.996,8.056,8.044
8.16,8.036,9.252,7.964,7.74,8.148,9.044,7.916,8.212,8.052
8.172,8.068,9.2,8.024,7.664,8.212,10.388,8.012,8.2,8.048
8.116,8.06,9.116,7.968,8.188,8.204,11.668,8.132,8.06,8.064
8.176,8.04,9.132,7.888,8.372,8.144,12.864,8.008,8.056,8.072
8.244,8.036,9.196,7.968,7.82,8.068,13.188,7.904,8.168,8.116
8.192,8.1,9.096,8.024,7.544,8.116,11.968,7.984,8.308,8.08
8.172,8.112,8.92,7.98,8.144,8.176,10.012,8.088,8.12,8.084
8.2,8.06,8.86,7.936,8.388,8.096,8.372,8.064,8.06,8.148
8.288,8.06,8.844,7.968,7.888,8.06,7.796,7.928,8.172,8.212
8.296,8.076,8.74,8.008,7.488,8.104,7.804,7.96,8.28,8.232
8.284,8.116,8.544,8.008,8.044,8.152,7.756,8.096,8.156,8.228
8.32,8.096,8.46,7.94,8.388,8.108,7.884,8.112,8.06,8.228
8.384,8.08,8.476,7.948,7.952,8.076,8.02,7.98,8.128,8.2
8.408,8.116,8.432,7.984,7.464,8.06,8.1,7.972,8.232,8.132
8.388,8.144,8.288,8.02,7.976,8.168,8.096,8.092,8.16,8.1
8.428,8.116,8.216,7.96,8.36,8.144,8.048,8.176,8.08,8.1
8.52,8.12,8.252,7.936,8.024,8.1,8.004,8.06,8.152,8.096
8.592,8.152,8.236,7.992,7.484,8.108,7.944,8.064,8.28,8.076
8.592,8.184,8.12,8.02,7.824,8.192,7.988,8.164,8.22,8.036
8.636,8.156,8.068,7.952,8.284,8.232,7.956,8.28,8.1,8.04
8.696,8.136,8.116,7.928,8.104,8.128,7.936,8.152,8.148,8.032
8.78,8.184,8.14,7.984,7.592,8.08,7.96,8.072,8.276,7.988
8.784,8.244,8.092,8.008,7.736,8.236,7.956,8.156,8.192,7.948
8.816,8.22,8.008,7.988,8.224,8.336,7.956,8.28,8.06,7.956
8.916,8.208,8.052,7.908,8.224,8.664,7.948,8.168,8.108,7.972
8.98,8.236,8.132,7.952,7.692,9.384,7.944,8.076,8.232,7.98
8.996,8.292,8.072,8.012,7.576,9.784,7.936,8.132,8.236,7.956
9.036,8.28,7.972,8,8.152,9.852,7.944,8.236,8.084,7.964
9.064,8.288,8.004,7.924,8.312,9.36,7.964,8.168,8.084,7.98
9.136,8.304,8.104,7.944,7.756,8.792,7.98,8.048,8.244,7.964
9.136,8.384,8.088,8,7.492,8.456,7.944,8.092,8.304,7.952
9.084,8.42,7.98,7.988,8.076,8.348,8,8.204,8.272,7.968
9.08,8.396,7.988,7.904,8.368,8.152,8.008,8.144,8.204,7.976
9.076,8.412,8.084,7.96,7.844,8.08,7.968,7.976,8.296,7.996
8.976,8.484,8.064,8.004,7.424,8.088,7.976,8,8.408,7.992
8.804,8.532,7.988,8,7.98,8.136,8.02,8.072,8.284,7.944
8.748,8.54,7.984,7.928,8.348,8.192,8.024,8.028,8.124,7.896
8.66,8.54,8.084,7.944,7.908,8.188,7.996,7.904,8.244,7.812
8.58,8.632,8.072,7.972,7.424,8.224,8.028,7.888,8.46,7.832
8.428,8.684,8.008,7.992,7.928,8.3,8.052,8.016,8.424,8.076
8.332,8.688,7.96,7.932,8.328,8.272,8.048,8.072,8.516,8.452
8.296,8.68,8.052,7.952,7.976,8.212,8.012,7.9,8.42,9.088
8.272,8.772,8.072,7.952,7.468,8.22,8.056,7.848,8.308,9.752
8.128,8.828,8.024,7.996,7.792,8.296,8.048,7.96,8.372,10.368
8.076,8.832,7.968,7.96,8.288,8.3,8.096,8.068,8.364,10.936
8.1,8.852,8.08,7.928,8.06,8.216,8.096,7.944,8.392,11.164
8.088,8.888,8.096,7.988,7.576,8.192,8.084,7.872,8.46,11.18
7.98,8.948,8.044,8.012,7.684,8.296,8.096,7.964,8.42,10.576
7.956,8.944,7.972,7.956,8.208,8.3,8.108,8.056,8.316,9.304
8.012,8.968,8.048,7.916,8.196,8.244,8.156,7.952,8.26,8.312
8.024,8.972,8.108,7.96,7.688,8.228,8.132,7.876,8.24,7.864
7.956,9.028,8.06,8.012,7.568,8.312,8.16,7.968,8.26,7.724
7.912,8.968,7.98,8,8.136,8.34,8.184,8.088,8.132,7.76
7.916,8.948,8.04,7.92,8.288,8.256,8.192,7.98,8.204,7.872
7.968,8.884,8.104,7.96,7.752,8.224,8.212,7.82,8.38,7.928
7.936,8.88,8.084,8.032,7.444,8.292,8.216,7.764,8.288,7.992
7.9,8.828,8.016,8,8.064,8.34,8.252,7.784,7.992,8.032
7.928,8.712,8.004,7.912,8.352,8.284,8.252,7.844,8.016,8.048
7.976,8.652,8.1,7.972,7.836,8.28,8.296,7.988,8.24,8.048
7.964,8.64,8.06,7.996,7.416,8.3,8.3,8.396,8.32,8
7.884,8.576,7.984,8.02,7.972,8.36,8.36,9.044,8.072,7.992
7.904,8.452,7.992,7.996,8.376,8.336,8.388,9.624,7.948,8.008
7.976,8.356,8.076,7.984,7.912,8.296,8.456,10.088,8.08,8.012
7.976,8.352,8.076,8.056,7.44,8.3,8.472,10.748,8.024,7.972
7.896,8.336,8.016,8.012,7.9,8.38,8.54,10.948,8.136,7.98
7.94,8.24,7.992,8.032,8.376,8.372,8.572,10.128,8.016,7.996
7.976,8.148,8.06,8,7.98,8.328,8.64,8.98,8.064,8.016
8.004,8.156,8.104,8.104,7.476,8.332,8.66,8.4,8.224,8
7.892,8.172,8.012,8.132,7.816,8.412,8.764,8.24,8.176,8.012
7.924,8.116,7.944,8.12,8.308,8.432,8.836,8.156,7.884,8.02
7.956,8.08,8.04,8.132,8.076,8.356,8.896,7.92,7.992,8.02
7.968,8.06,8.072,8.208,7.576,8.364,8.936,7.96,8.128,8.004
7.912,8.08,8.036,8.232,7.668,8.428,9.008,8.156,8.144,8.012
7.92,8.056,7.972,8.16,8.212,8.472,9.108,8.26,7.944,8.052
7.956,8,8,8.068,8.22,8.4,9.152,8.116,8.028,8.056
7.972,8.016,8.116,8.064,7.696,8.4,9.164,8.024,8.568,8.072
7.932,8.084,8.032,8.096,7.576,8.496,9.228,8.104,9.068,8.056
7.92,8.068,7.94,8.06,8.116,8.548,9.288,8.22,8.984,8.024
7.952,8.012,7.996,7.984,8.34,8.5,9.248,8.116,9.532,8.056
7.96,7.996,8.076,8.024,7.76,8.48,9.224,7.992,10.496,8.072
7.94,8.08,8.064,8.084,7.428,8.564,9.168,8.052,11.368,8.064
7.884,8.064,7.952,8.076,8.064,8.628,9.14,8.188,11.084,8.08
7.924,8.02,7.992,7.972,8.396,8.572,9.036,8.156,9.892,8.092
7.96,8.012,8.068,7.972,7.86,8.58,8.916,8.012,9.02,8.108
7.952,8.044,8.06,8.004,7.42,8.66,8.772,8.036,8.516,8.108
7.884,8.072,7.972,7.964,7.98,8.76,8.712,8.152,8.2,8.108
7.928,8.028,7.98,7.908,8.384,8.748,8.608,8.164,8.116,8.148
7.944,8.012,8.044,7.892,7.936,8.728,8.456,8.044,8.14,8.156
7.928,8.052,8.056,7.964,7.432,8.744,8.38,8.036,8.292,8.16
7.884,8.076,7.968,8.008,7.928,8.872,8.28,8.144,8.268,8.156
7.888,8.052,7.948,7.924,8.376,8.9,8.236,8.196,8.148,8.204
7.964,8.016,8.004,7.936,8.032,8.828,8.116,8.056,8.216,8.22
7.948,8.04,8.068,7.976,7.56,8.868,8.076,8.06,8.296,8.228
7.872,8.076,7.992,7.992,7.908,8.96,8.008,8.168,8.116,8.228
7.904,8.036,7.96,7.96,8.392,8.984,7.984,8.252,7.976,8.256
7.916,8.016,8.012,7.912,8.192,8.896,7.968,8.116,8.04,8.3
7.908,8.04,8.068,7.968,7.684,8.908,7.936,8.064,8.192,8.328
7.88,8.06,8.036,7.996,7.76,8.968,7.908,8.16,8.196,8.336
7.876,8.028,7.944,7.936,8.3,8.96,7.916,8.272,8.04,8.396
7.932,8.004,8.016,7.852,8.36,8.864,7.88,8.128,8.044,8.44
7.908,8.016,8.072,7.864,7.8,8.82,7.852,8.064,8.232,8.46
7.884,8.068,8.032,7.96,7.696,8.836,7.84,8.152,8.232,8.496
7.876,8.052,7.948,8.144,8.276,8.82,7.868,8.272,8.088,8.492
7.888,8.008,7.992,8.496,8.46,8.692,7.864,8.196,8.116,8.568
7.916,8,8.076,9.032,7.908,8.588,7.836,8.084,8.224,8.592
7.884,8.036,8.056,9.716,7.552,8.564,7.824,8.188,8.272,8.62
7.836,8.044,7.952,10.432,8.172,8.56,7.856,8.3,8.176,8.664
7.868,8.024,7.984,10.672,8.492,8.424,7.816,8.248,8.112,8.696
7.904,7.992,8.064,10.02,7.984,8.38,7.804,8.16,8.24,8.728
7.88,8.012,8.06,9.14,7.572,8.36,7.82,8.216,8.364,8.752
7.844,8.056,7.968,8.552,8.12,8.38,7.844,8.328,8.196,8.74
7.864,8,7.964,8.032,8.468,8.312,7.836,8.348,8.1,8.748
7.888,7.988,8.064,7.664,7.96,8.236,7.82,8.204,8.164,8.716
7.876,8.012,8.056,7.496,7.416,8.204,7.812,8.248,8.296,8.672
7.86,8.06,7.984,7.444,7.904,8.264,7.8,8.372,8.168,8.616
7.844,8.004,7.972,7.36,8.332,8.236,7.808,8.452,8.164,8.584
7.9,7.968,8.024,7.364,8.004,8.156,7.816,8.32,8.244,8.544
7.896,8,8.084,7.416,7.52,8.16,7.784,8.32,8.456,8.472
7.852,8.044,8.016,7.532,7.804,8.208,7.816,8.452,8.408,8.36
7.852,8.02,7.968,7.628,8.296,8.208,7.816,8.564,8.272,8.336
7.912,7.952,8.012,7.664,8.096,8.132,7.78,8.424,8.28,8.292
7.92,7.988,8.084,7.8,7.592,8.116,7.788,8.384,8.34,8.228
7.916,8.028,8.036,7.932,7.664,8.168,7.78,8.544,8.272,8.164
7.896,8.012,7.96,8.008,8.208,8.184,7.792,8.656,8.072,8.144
7.968,7.964,8.036,7.992,8.204,8.108,7.796,8.564,8.196,8.112
8.008,7.972,8.116,8.056,7.636,8.08,7.784,8.5,8.408,8.104
8.004,8.004,8.124,8.128,7.428,8.144,7.796,8.636,8.468,8.06
8.008,8.016,8,8.112,7.984,8.196,7.764,8.78,8.296,8.028
8.092,7.972,8.076,8.056,8.26,8.084,7.804,8.728,8.268,8.048
8.092,7.964,8.208,8.124,7.948,8.088,7.764,8.668,8.42,8.028
8.048,7.996,8.148,8.188,8.284,8.116,7.792,8.784,8.524,8.008
7.988,8,8.088,8.176,9.776,8.148,7.808,8.896,8.376,8.012
8.008,7.992,8.104,8.14,10.948,8.112,7.792,8.896,8.4,8.012
7.992,7.964,8.216,8.156,11.06,8.072,7.788,8.804,8.556,8.024
7.972,7.992,8.268,8.212,10.46,8.112,7.768,8.876,8.612,7.996
7.92,8.02,8.24,8.2,10.412,8.192,7.804,9.012,8.504,8
7.924,7.96,8.208,8.184,10.02,8.156,7.808,9.048,8.492,8.016
7.948,7.944,8.236,8.188,8.756,8.084,7.764,8.904,8.588,8.012
7.876,7.988,8.252,8.256,7.568,8.076,7.76,8.92,8.716,8
7.84,8.016,8.164,8.268,7.716,8.168,7.78,9.028,8.636,8.028
7.804,7.968,8.132,8.196,7.992,8.172,7.78,9.02,8.6,8.028
7.864,7.94,8.196,8.2,7.548,8.108,7.752,8.84,8.668,8.028
7.836,7.988,8.216,8.284,7.136,8.108,7.76,8.748,8.852,8.012
7.772,8.016,8.184,8.296,7.604,8.196,7.808,8.768,8.792,8.012
7.804,7.98,8.104,8.252,8.28,8.192,7.788,8.776,8.628,8.012
7.848,7.964,8.16,8.244,8.248,8.108,7.788,8.532,8.676,8.032
7.832,7.972,8.16,8.32,7.82,8.096,7.768,8.416,8.828,8.044
7.796,8.012,8.084,8.364,7.872,8.168,7.756,8.44,8.868,8.016
7.8,7.976,7.98,8.332,8.376,8.192,7.76,8.464,8.72,8.012
7.844,7.952,8.032,8.296,8.412,8.116,7.792,8.268,8.732,8.048
7.856,7.964,8.072,8.348,7.904,8.108,7.76,8.148,8.636,8.044
7.8,8.008,8.044,8.416,7.724,8.184,7.748,8.176,8.588,8.02
7.764,7.984,7.944,8.408,8.316,8.208,7.744,8.268,8.328,8.012
7.68,7.948,7.98,8.34,8.556,8.116,7.764,8.144,8.296,8.028
7.78,7.964,8.028,8.392,7.976,8.1,7.776,8.016,8.432,8.032
8.04,8.016,8.012,8.468,7.644,8.148,7.752,8.064,8.456,8.004
8.484,7.996,7.916,8.464,8.272,8.204,7.744,8.172,8.308,8
9.124,7.964,7.932,8.436,8.616,8.14,7.772,8.144,8.276,8.028
9.852,7.92,8.02,8.448,8.112,8.104,7.736,8.02,8.236,8.02
10.548,7.988,8.016,8.548,7.672,8.14,7.72,8.028,8.284,7.996
11.012,8,7.936,8.54,8.252,8.22,7.768,8.14,8.236,8.004
10.896,7.956,7.936,8.488,8.648,8.168,7.784,8.148,8.192,8.02
9.796,7.948,8.008,8.56,8.188,8.104,7.768,7.984,8.14,8.032
8.64,7.984,8.04,8.636,7.7,8.104,7.736,8.012,8.172,7.996
7.884,8.008,7.94,8.652,8.184,8.176,7.76,8.108,8.128,8.004
7.668,7.956,7.912,8.636,8.64,8.172,7.748,8.168,7.976,8.02
7.696,7.956,7.988,8.684,8.32,8.076,7.728,7.988,8.016,8.02
7.752,7.984,8.04,8.764,7.832,8.092,7.716,7.976,8.168,8.012
7.74,8.016,7.98,8.808,8.124,8.196,7.732,8.104,8.208,8
7.84,7.98,7.916,8.832,8.648,8.168,7.768,8.184,8.128,7.996
7.904,7.976,7.992,8.84,8.488,8.1,7.74,8.012,8.08,8.008
7.928,7.98,8.044,8.932,7.984,8.068,7.748,7.972,8.136,7.984
7.908,8,8.004,9.052,8.04,8.148,7.728,8.072,8.288,7.996
7.9,7.98,7.896,9.04,8.604,8.172,7.744,8.192,8.18,8.012
7.932,7.956,7.976,9.028,8.656,8.096,7.76,8.048,8.06,7.996
7.92,7.972,8.092,9.152,8.152,8.072,7.756,7.956,8.076,8.012
7.888,7.992,8.024,9.276,7.992,8.164,7.732,8.024,8.136,7.996
7.904,8.02,7.884,9.272,8.608,8.184,7.776,8.16,8.008,8.016
7.96,7.98,7.928,9.268,8.82,8.092,7.752,8.076,8.144,8.028
7.968,7.964,7.988,9.38,8.304,8.064,7.72,7.976,8.176,8.068
7.948,8.004,8.14,9.456,7.98,8.112,7.756,8.036,8.116,8.06
7.932,8.02,8.404,9.476,8.616,8.16,7.768,8.152,8.104,8.068
7.944,7.964,8.868,9.42,8.972,8.136,7.744,8.096,7.896,8.108
8,7.96,9.596,9.496,8.5,8.088,7.736,7.968,7.988,8.1
7.964,8.004,10.388,9.536,8.056,8.128,7.756,8.028,8.196,8.064
7.968,8.028,10.992,9.556,8.664,8.18,7.768,8.132,8.18,8.104
7.976,7.976,10.388,9.48,9.12,8.156,7.76,8.132,8.036,8.172
8.024,7.964,9.664,9.476,8.7,8.08,7.716,7.992,7.964,8.22
8.02,8.012,9.248,9.492,8.26,8.1,7.736,7.996,8.08,8.22
7.976,8.032,8.712,9.444,8.716,8.172,7.748,8.104,8.092,8.196
8,7.972,8.196,9.348,9.212,8.156,7.784,8.176,8.016,8.192
8.1,7.968,7.888,9.216,8.96,8.088,7.752,7.992,8.112,8.124
8.048,7.996,7.724,9.196,8.488,8.088,7.72,7.952,8.208,8.12
8.02,8.004,7.712,9.12,8.82,8.184,7.76,8.088,8.068,8.084
8.048,7.984,7.864,9.012,9.36,8.156,7.768,8.152,7.948,8.048
8.124,7.944,8.056,8.852,9.272,8.072,7.78,7.996,7.968,8.036
8.132,7.992,8.188,8.8,8.792,8.052,7.744,7.956,8.112,8.02
8.12,8.024,8.164,8.752,8.852,8.136,7.744,8.048,8.084,8.028
8.148,8.012,8.096,8.628,9.444,8.156,7.752,8.132,8.016,7.996
8.176,7.988,8.08,8.46,9.52,8.084,7.748,8.012,8.104,7.984
8.224,7.992,8.184,8.464,9.016,8.056,7.756,7.936,8.296,7.972
8.176,8.024,8.164,8.452,8.84,8.12,7.772,8.036,8.24,7.96
8.212,8.012,8.04,8.344,9.44,8.176,7.792,8.124,7.98,7.944
8.256,7.976,8.088,8.24,9.644,8.104,7.796,8.04,7.956,7.936
8.292,7.968,8.188,8.24,9.036,8.072,7.776,7.944,8.012,7.972
8.3,8.02,8.16,8.232,8.592,8.096,7.744,8.02,8.328,7.94
8.316,8.056,8.06,8.172,9.108,8.16,7.768,8.116,8.196,7.948
8.376,8.016,8.088,8.104,9.372,8.12,7.764,8.06,7.94,7.952
8.44,8.048,8.184,8.104,8.764,8.072,7.768,7.94,8.032,7.976
8.476,8.128,8.168,8.136,8.156,8.112,7.744,7.968,8.152,7.952
8.444,8.124,8.12,8.116,8.64,8.172,7.776,8.108,8.012,7.948
8.54,8.06,8.108,8.056,8.94,8.132,7.808,8.104,7.896,7.956
8.64,8.044,8.192,8.052,8.44,8.068,7.768,7.96,7.98,7.96
8.668,8.128,8.192,8.096,7.864,8.076,7.768,7.952,8.216,7.968
8.644,8.168,8.144,8.108,8.236,8.168,7.784,8.056,8.156,7.916
8.76,8.168,8.096,8.052,8.592,8.14,7.752,8.112,7.956,7.812
8.844,8.116,8.196,8.04,8.26,8.052,7.772,7.928,7.976,7.78
8.896,8.1,8.236,8.072,7.704,8.08,7.768,7.952,8.184,8.004
8.864,8.168,8.196,8.08,7.94,8.164,7.788,8.04,8.196,8.324
8.936,8.096,8.148,8.072,8.38,8.156,7.788,8.096,8.052,8.936
9,8.036,8.216,8.032,8.224,8.072,7.784,7.944,8.024,9.592
9.052,8.052,8.284,8.056,7.7,8.06,7.76,7.912,8.216,10.236
9.016,8.076,8.228,8.128,7.716,8.148,7.768,8,8.284,10.836
9.016,8.052,8.172,8.084,8.24,8.172,7.788,8.096,8.136,11.104
9.048,8.024,8.248,8.028,8.292,8.076,7.784,7.972,8.34,11.192
9.02,7.984,8.344,8.048,7.772,8.08,7.772,7.896,8.364,10.76
8.904,8.04,8.312,8.104,7.524,8.176,7.776,7.996,8.344,9.568
8.78,8,8.232,8.076,8.152,8.208,7.772,8.1,8.216,8.416
8.72,7.944,8.276,8.032,8.344,8.136,7.8,8.004,8.232,7.864
8.632,7.924,8.384,8.064,7.816,8.128,7.76,7.904,8.348,7.692
8.524,7.996,8.372,8.136,7.432,8.176,7.752,7.992,8.42,7.696
8.38,8.008,8.312,8.084,8.056,8.236,7.792,8.064,8.264,7.804
8.312,7.96,8.376,8.052,8.396,8.196,7.796,8.08,8.308,7.916
8.252,7.948,8.468,8.068,7.892,8.192,7.78,7.9,8.412,7.968
8.168,8,8.468,8.116,7.408,8.244,7.776,7.956,8.356,8.028
8.04,8.028,8.432,8.092,8.004,8.352,7.804,8.072,8.184,8.024
8.036,7.98,8.464,8.032,8.376,8.284,7.8,8.092,8.12,8.008
8.04,7.944,8.536,8.064,7.976,8.224,7.784,7.936,8.232,8.012
7.996,7.912,8.616,8.1,7.472,8.268,7.768,7.94,8.392,7.988
7.928,7.9,8.604,8.112,7.916,8.336,7.78,8.072,8.22,7.992
7.892,7.832,8.6,8.044,8.348,8.28,7.764,8.1,8.02,7.984
7.948,7.944,8.736,8.016,8.048,8.18,7.776,7.916,8.088,8.004
7.916,8.196,8.816,8.056,7.532,8.172,7.772,7.904,8.224,7.996
7.872,8.66,8.824,8.1,7.788,8.24,7.768,8.032,8.112,8
7.884,9.112,8.8,8.052,8.312,8.22,7.776,8.12,7.968,7.98
7.9,9.744,8.904,7.976,8.16,8.1,7.784,7.956,8.036,8.004
7.88,10.276,9.008,8.02,7.672,8.064,7.768,7.884,8.252,8.028
7.852,10.212,9,8.084,7.676,8.164,7.76,8.016,8.18,8.024
7.848,9.596,8.988,8.052,8.224,8.136,7.776,8.092,7.964,8.028
7.884,9.02,9.088,7.964,8.296,8.028,7.784,7.96,7.976,8.028
7.888,8.572,9.228,7.996,7.76,8.008,7.776,7.892,8.068,8.052
7.86,8.112,9.22,8.028,7.548,8.108,7.776,7.976,8.112,8.012
7.848,7.86,9.144,8.024,8.152,8.128,7.784,8.088,7.952,8.032
7.892,7.844,9.18,7.948,8.364,8.064,7.8,8.016,7.996,8.024
7.904,7.964,9.26,8,7.856,8.008,7.776,7.9,8.088,8.068
7.872,8.072,9.176,8.068,7.456,8.056,7.76,7.992,8.108,8.044
7.86,8.124,9.076,8.044,8.064,8.124,7.788,8.112,7.98,8.084
7.88,8.088,9.012,7.948,8.412,8.064,7.796,8.08,7.94,8.1
7.924,8.06,8.996,7.964,7.912,8.024,7.768,7.956,8.084,8.104
7.88,8.084,8.924,8.036,7.432,8.04,7.78,8.032,8.144,8.088
7.856,8.132,8.74,7.996,8.008,8.136,7.772,8.172,8.008,8.08
7.872,8.068,8.652,7.964,8.4,8.092,7.784,8.212,7.872,8.116
7.924,8.032,8.628,7.968,7.976,8.02,7.78,8.056,7.968,8.132
7.912,8.08,8.576,8,7.476,8.044,7.776,8.076,8.38,8.144
7.852,8.124,8.4,8.032,7.92,8.108,7.776,8.216,8.744,8.14
7.884,8.076,8.304,7.984,8.332,8.088,7.78,8.26,9.032,8.16
7.928,8.056,8.328,7.956,8.056,7.992,7.776,8.076,9.592,8.168
7.912,8.08,8.324,7.956,7.54,8.02,7.732,8.068,10.38,8.184
7.852,8.124,8.2,8.012,7.76,8.156,7.808,8.184,11.212,8.192
7.872,8.076,8.12,7.992,8.24,8.472,7.82,8.252,11.132,8.2
7.92,8.064,8.164,7.936,8.156,8.996,7.788,8.096,9.952,8.252
7.916,8.076,8.22,7.964,7.664,9.588,7.764,8.02,9.02,8.26
7.868,8.144,8.136,8.004,7.632,9.656,7.764,8.128,8.508,8.272
7.856,8.112,8.032,8.004,8.192,9.404,7.796,8.216,8.208,8.312
7.884,8.064,8.072,7.916,8.248,8.7,7.784,8.072,8.208,8.344
7.912,8.068,8.16,7.948,7.716,8.328,7.772,7.996,8.384,8.364
7.86,8.132,8.088,8.016,7.48,8.276,7.772,8.044,8.38,8.396
7.824,8.144,7.972,7.992,8.084,8.196,7.76,8.128,8.18,8.412
7.86,8.112,8.02,7.928,8.324,7.984,7.788,8.02,8.128,8.444
7.896,8.084,8.12,7.94,7.78,7.968,7.772,7.84,8.192,8.5
7.892,8.144,8.084,8.02,7.404,8.004,7.748,7.912,8.236,8.52
7.836,8.152,7.98,7.956,8.004,8.096,7.76,8.028,8.096,8.564
7.836,8.14,8.004,7.932,8.368,8.092,7.768,8.008,8.028,8.616
7.912,8.096,8.088,7.944,7.844,8.096,7.792,7.844,8.1,8.672
7.856,8.172,8.08,8.004,7.356,8.128,7.764,7.904,8.204,8.7
7.796,8.196,7.988,7.988,7.924,8.228,7.788,8.02,8.096,8.7
7.856,8.164,7.976,7.952,8.32,8.2,7.788,8.02,8.064,8.744
7.896,8.152,8.068,7.94,7.916,8.132,7.74,7.864,8.132,8.768
7.876,8.208,8.088,7.984,7.44,8.144,7.744,7.876,8.204,8.76
7.836,8.232,8.028,7.984,7.836,8.232,7.784,7.98,8.192,8.752
7.832,8.216,7.96,7.96,8.272,8.228,7.776,8.024,8.108,8.764
7.892,8.188,8.048,7.924,8.02,8.148,7.764,7.872,8.184,8.724
7.86,8.228,8.1,7.992,7.492,8.144,7.784,7.876,8.332,8.66
7.808,8.296,8.048,8.02,7.7,8.224,7.796,7.992,8.2,8.616
7.824,8.224,7.952,7.968,8.208,8.264,7.788,8.048,8.024,8.564
7.888,8.224,8.032,7.908,8.148,8.16,7.792,7.896,8.34,8.512
7.892,8.276,8.116,7.972,7.608,8.168,7.776,7.86,8.48,8.46
7.84,8.336,8.056,8.012,7.588,8.252,7.776,7.972,8.26,8.38
7.796,8.344,7.96,8.012,8.156,8.276,7.776,8.016,7.82,8.32
7.864,8.32,8.028,7.908,8.256,8.172,7.768,7.76,7.856,8.276
7.872,8.34,8.108,7.948,7.7,8.212,7.76,7.552,8.052,8.22
7.8,8.416,8.048,8.016,7.452,8.264,7.76,7.752,8.164,8.176
7.804,8.444,7.952,8.004,8.044,8.316,7.768,8.136,8.076,8.144
7.856,8.436,7.984,7.92,8.312,8.26,7.796,8.404,8.184,8.136
7.86,8.44,8.088,7.952,7.784,8.224,7.748,8.82,8.368,8.12
7.868,8.528,8.064,8,7.352,8.292,7.772,9.48,8.432,8.076
7.844,8.568,7.972,7.98,8,8.336,7.82,10.216,8.196,8.06
7.904,8.556,7.992,7.932,8.364,8.288,7.836,10.916,8.104,8.056
7.972,8.6,8.068,7.968,7.848,8.272,7.812,10.932,8.224,8.072
7.952,8.656,8.068,8,7.352,8.3,7.844,10.096,8.264,8.032
7.916,8.724,7.972,8.012,7.916,8.38,7.88,9.228,8.292,8.028
7.98,8.68,7.976,7.96,8.32,8.348,7.992,8.704,8.336,8.032
8.064,8.728,8.068,7.96,7.924,8.288,8.004,8.244,8.284,8.048
8.08,8.792,8.072,8.012,7.416,8.32,7.992,8.076,8.424,8.048
8,8.9,8.024,8.024,7.82,8.404,7.96,8.088,8.508,8.024
7.988,8.848,7.976,7.972,8.276,8.4,7.956,8.18,8.472,8.032
8.024,8.872,8.032,7.944,8.028,8.332,7.96,8.048,8.392,8.032
8.004,8.94,8.092,7.964,7.508,8.34,7.96,8.068,8.44,8.04
7.932,8.98,8.048,7.984,7.684,8.464,7.96,8.188,8.28,8.04
7.924,9.004,7.956,7.98,8.196,8.452,7.988,8.228,8.048,8.012
7.984,8.984,8.016,7.916,8.152,8.384,7.924,8.052,8.196,8.064
7.952,9.032,8.092,7.968,7.588,8.392,7.852,7.988,8.52,8.06
7.876,9.06,8.052,8.008,7.548,8.46,7.832,8.092,8.552,8.04
7.852,9.04,7.944,7.996,8.132,8.428,7.844,8.188,8.4,8.044
7.852,8.98,8.012,7.908,8.276,8.476,7.84,8.08,8.408,8.032
7.84,8.992,8.092,7.952,7.7,8.488,7.812,7.972,8.568,8.064
7.788,8.968,8.016,8.004,7.444,8.572,7.84,8.064,8.604,8.032
7.768,8.892,7.928,7.996,8.064,8.656,7.844,8.168,8.508,8.036
7.8,8.792,7.984,7.928,8.324,8.612,7.816,8.096,8.652,8.052
7.82,8.736,8.068,7.956,7.76,8.596,7.776,7.996,8.8,8.072
7.776,8.728,8.044,8.004,7.36,8.684,7.748,8.076,8.796,8.044
7.74,8.656,7.964,7.98,7.996,8.756,7.772,8.172,8.644,8.056
7.812,8.516,7.96,7.948,8.356,8.74,7.772,8.16,8.572,8.032
7.856,8.444,8.044,7.928,7.84,8.768,7.76,8.016,8.656,8.032
7.8,8.424,8.036,7.98,7.364,8.804,7.724,8.084,8.784,8.056
7.76,8.412,7.972,7.976,7.908,8.896,7.744,8.18,8.88,8.028
7.788,8.288,7.932,7.964,8.304,8.888,7.752,8.192,8.664,8.06
7.768,8.22,8.024,7.94,7.932,8.82,7.744,8.036,8.508,8.056
7.664,8.232,8.056,7.984,7.4,8.932,7.712,8.044,8.664,8.032
7.812,8.236,7.988,7.992,7.796,8.952,7.74,8.192,8.56,8.04
8.172,8.172,7.928,7.976,8.272,8.976,7.76,8.252,8.38,8.044
8.796,8.108,7.996,7.924,8.04,8.88,7.756,8.056,8.4,8.04
9.36,8.112,8.08,7.964,7.504,8.868,7.756,8.036,8.28,8.028
10.084,8.144,7.996,8.02,7.712,8.932,7.764,8.18,8.308,7.992
10.8,8.108,7.872,8,8.22,8.912,7.78,8.268,8.204,8.048
11.276,8.08,7.964,7.936,8.156,8.752,7.748,8.128,8.14,8.012
10.76,8.076,8.06,7.96,7.592,8.704,7.764,8.08,8.248,8.056
9.368,8.12,8,8,7.544,8.712,7.764,8.192,8.192,8.016
8.24,8.072,7.9,7.988,8.192,8.692,7.76,8.268,8.028,8.008
7.832,8.044,7.964,7.944,8.336,8.516,7.78,8.172,8.072,8.024
7.768,8.052,8.064,7.96,7.78,8.44,7.784,8.08,8.212,8.032
7.792,8.1,8.008,8.02,7.496,8.46,7.792,8.216,8.192,8.004
7.8,8.1,7.896,8,8.152,8.468,7.772,8.316,8.016,8.036
7.884,8.036,7.916,7.928,8.392,8.34,7.796,8.252,8.008,8.06
7.94,8.048,8.044,7.968,7.868,8.236,7.784,8.144,8.12,8.076
7.944,8.08,8.016,8.016,7.46,8.256,7.816,8.252,8.232,8.056
7.896,8.104,7.932,8.02,8.112,8.28,7.78,8.368,8.076,8.08
7.928,8.052,7.924,7.948,8.472,8.204,7.76,8.372,7.984,8.096
7.964,8.064,8.036,7.952,7.992,8.136,7.636,8.224,8.072,8.096
7.936,8.08,8,8.004,7.448,8.144,7.608,8.284,8.188,8.104
7.88,8.104,7.94,8.016,8.016,8.192,7.736,8.416,8.052,8.132
7.94,8.06,7.94,7.984,8.424,8.132,8.132,8.476,7.968,8.22
7.984,8.068,8.02,7.952,8.052,8.048,9.028,8.312,8.084,8.256
7.948,8.08,8.024,8,7.496,8.076,10.36,8.336,8.248,8.256
7.904,8.132,7.968,8.012,7.924,8.16,11.648,8.496,8.288,8.24
7.94,8.052,7.908,7.944,8.4,8.14,12.804,8.564,8.028,8.188
7.976,8.056,7.976,7.916,8.152,8.04,12.972,8.44,8.092,8.16
7.988,8.076,8.004,7.972,7.568,8.036,11.652,8.436,8.16,8.108
7.932,8.104,7.968,8.036,7.708,8.132,9.708,8.62,8.116,8.092
7.968,8.064,7.892,7.976,8.18,8.144,8.248,8.716,7.936,8.048
8.032,8.032,7.976,7.96,8.14,8.02,7.792,8.6,7.988,8.072
8.028,8.088,8.052,7.972,7.592,8,7.752,8.58,8.052,8.04
7.96,8.104,7.972,8.012,7.512,8.1,7.728,8.748,8.056,8.008
7.968,8.072,7.9,7.992,8.112,8.12,7.836,8.852,7.924,7.988
8.048,8.032,7.948,7.928,8.248,8.036,8,8.748,8.032,7.98
8.068,8.06,8.044,7.948,7.692,8.016,8.076,8.684,8.224,7.984
8.064,8.088,7.984,8.024,7.396,8.104,8.064,8.832,8.324,7.932
8.016,8.084,7.884,8,8.044,8.128,8.028,8.964,7.956,7.944
8.088,8.036,7.956,7.932,8.312,8.072,7.984,8.932,7.772,7.992
8.132,8.02,8.048,7.976,7.768,8.036,7.944,8.84,7.964,7.984
8.088,8.076,8.012,8.032,7.32,8.064,7.892,8.952,8.084,7.972
8.096,8.08,7.944,7.996,7.916,8.124,7.94,9.064,8.004,7.96
8.116,8.008,7.94,7.948,8.224,8.064,7.9,9.056,7.936,7.936
8.2,8.024,8.052,7.96,7.736,8.052,7.916,8.876,8.124,7.952
8.172,8.056,8.056,8.04,7.292,8.072,7.916,8.884,8.204,7.94
8.156,8.084,7.98,8.044,8.084,8.144,7.912,8.968,8.084,7.948
8.184,8.04,8.004,8.004,9.18,8.116,7.932,8.904,7.96,7.968
8.276,8.016,8.112,7.996,9.672,8.048,7.92,8.644,7.984,7.972
8.284,8.076,8.124,8.032,9.976,8.068,7.92,8.612,8.16,7.972
8.256,8.076,8.048,8.092,10.936,8.136,7.924,8.676,8.136,7.908
8.304,8.044,8.024,8.052,11.264,8.136,7.952,8.6,7.936,7.8
8.392,8.016,8.16,8.032,10.428,8.06,7.948,8.348,8.004,7.748
8.388,8.048,8.276,8.104,9.088,8.06,7.928,8.276,8.192,7.92
8.38,8.088,8.204,8.144,8.44,8.148,7.976,8.328,8.16,8.252
8.44,8.044,8.112,8.192,8.328,8.144,7.96,8.348,7.992,8.916
8.532,7.988,8.152,8.168,8,8.048,7.96,8.156,8.032,9.64
8.564,8.032,8.248,8.212,7.256,8.044,7.94,8.028,8.18,10.296
8.592,8.08,8.164,8.176,7.064,8.104,7.964,8.164,8.2,10.892
8.644,8.052,8.068,8.1,7.732,8.076,8.008,8.216,8.016,11.12
8.74,8.036,8.12,8.012,8.076,8.032,7.984,8.104,7.956,11.152
8.788,8.032,8.192,8.048,7.66,8.052,7.984,7.992,8.108,10.684
8.788,8.064,8.16,8.092,7.528,8.096,7.996,8.076,8.152,9.464
8.824,8.036,8.016,8.036,8.276,8.136,8.016,8.164,7.992,8.324
8.924,8,8.032,7.984,8.556,8.084,8.012,8.1,8.028,7.78
8.984,8.02,8.104,8.016,7.948,8.048,8.012,7.952,8.176,7.608
8.964,8.036,8.024,8.072,7.524,8.088,8.032,8.036,8.204,7.568
8.956,8.056,7.936,8.044,8.148,8.128,8.056,8.14,8.16,7.668
9.008,8.028,7.928,7.98,8.552,8.08,8.08,8.104,8.124,7.788
9.068,8,8.012,7.932,8.02,7.984,8.068,7.948,8.212,7.904
9.008,8.044,7.988,7.98,7.576,8.076,8.084,8.004,8.368,7.968
8.924,8.072,7.936,7.968,8.128,8.132,8.1,8.132,8.368,7.988
8.864,8.02,7.908,7.936,8.56,8.108,8.144,8.144,8.256,8
8.824,7.992,7.976,7.932,8.132,8.036,8.128,7.968,8.316,8.028
8.7,8.04,7.992,7.956,7.668,8.056,8.124,7.968,8.384,7.992
8.544,8.084,7.928,7.996,8.04,8.12,8.16,8.108,8.412,7.984
8.48,8.036,7.876,7.972,8.512,8.1,8.196,8.16,8.236,7.984
8.408,8.004,7.936,7.904,8.292,8.04,8.192,8.004,8.24,7.988
8.324,8.032,8,7.96,7.784,8.044,8.204,7.968,8.46,7.992
8.188,8.064,7.932,7.996,7.92,8.128,8.208,8.092,8.592,7.976
8.144,8.016,7.864,7.984,8.488,8.136,8.256,8.156,8.336,8.02
8.148,8.008,7.94,7.924,8.468,8.024,8.256,8.028,8.344,8.008
8.08,8.012,7.984,7.952,7.88,7.996,8.276,7.944,8.28,8.016
7.992,8.036,7.936,7.992,7.816,8.084,8.32,8.064,7.952,8.02
7.98,8.02,7.836,7.908,8.44,8.108,8.352,8.14,7.936,8.008
8,7.988,7.9,7.82,8.636,8.008,8.4,8.04,8.092,8.012
8.004,8.024,7.988,7.912,8.012,7.992,8.432,7.948,8.212,8.028
7.964,8.048,7.96,8.156,7.776,8.088,8.464,8.068,8.096,8.024
7.924,8.052,7.864,8.428,8.456,8.128,8.504,8.152,7.876,8.024
7.936,7.98,7.916,8.896,8.76,8.016,8.576,8.092,7.928,8.044
7.952,7.988,8.016,9.444,8.172,8.012,8.612,7.944,8.192,8.048
7.916,8.068,7.96,10.168,7.792,8.068,8.644,7.988,8.244,8.052
7.892,8.076,7.888,10.716,8.428,8.088,8.736,8.152,7.94,8.048
7.928,8.012,7.936,10.292,8.824,8.06,8.8,8.128,7.856,8.068
7.944,8,7.96,9.364,8.336,8.012,8.848,7.944,8.124,8.088
7.948,8.02,7.908,8.764,7.884,8.044,8.936,7.968,8.32,8.084
7.876,8.06,7.808,8.24,8.436,8.112,9.008,8.12,8.16,8.096
7.928,8,7.856,7.796,8.904,8.068,9.084,8.144,8,8.092
7.944,7.992,8.124,7.528,8.5,8.004,9.112,7.968,7.808,8.128
7.92,8.032,8.548,7.428,8.056,7.992,9.132,7.944,7.86,8.132
7.9,8.06,9.04,7.424,8.444,8.064,9.22,8.092,7.988,8.144
7.928,8.016,9.636,7.392,8.944,8.08,9.26,8.144,8.12,8.132
7.936,8.012,10.536,7.376,8.732,7.984,9.24,7.984,7.96,8.16
7.964,8.044,11.016,7.516,8.272,8.016,9.188,7.94,7.904,8.168
7.892,8.064,10.068,7.656,8.456,8.068,9.18,8.072,8.08,8.168
7.912,8.016,9.296,7.712,9.056,8.092,9.1,8.12,8.108,8.196
7.936,7.988,8.968,7.74,9.036,8.004,9,7.976,8.072,8.232
7.948,8.02,8.556,7.86,8.52,7.988,8.884,7.916,7.892,8.252
7.884,8.068,8.108,8.036,8.472,8.08,8.764,8.044,8.048,8.264
7.896,8.036,7.672,8.032,9.156,8.088,8.692,8.128,8.264,8.284
7.944,7.988,7.568,7.984,9.328,7.996,8.6,8.008,8.8,8.304
7.952,8.008,7.712,8.048,8.764,7.988,8.44,7.916,9.364,8.344
7.928,8.048,7.872,8.108,8.544,8.052,8.376,8.016,9.816,8.372
7.896,8.048,7.944,8.136,9.276,8.104,8.324,8.116,10.536,8.384
7.944,8,8.048,8.068,9.612,8.028,8.22,8.056,11.304,8.44
7.94,8,8.144,8.1,9.04,8.008,8.148,7.908,10.812,8.476
7.924,8.036,8.12,8.152,8.684,8.056,8.096,7.98,9.444,8.504
7.892,8.052,7.98,8.164,9.32,8.12,8.06,8.1,8.516,8.512
7.952,8.02,7.996,8.116,9.696,8.076,8.032,8.084,8.144,8.556
7.976,8.008,8.08,8.136,9.204,8.036,8.012,7.932,8.38,8.6
7.944,8.048,8.072,8.208,8.704,8.096,7.944,7.964,8.632,8.644
7.9,8.04,8.032,8.224,9.156,8.168,7.944,8.084,8.22,8.676
7.888,8.004,8.012,8.2,9.548,8.136,7.924,8.108,8.056,8.684
7.956,7.984,8.096,8.148,9.028,8.088,7.888,7.932,8.316,8.74
7.952,8.032,8.108,8.204,8.472,8.128,7.888,7.928,8.404,8.732
7.888,8.072,8.052,8.248,8.696,8.244,7.904,8.056,8.2,8.72
7.9,8.02,8,8.216,9.076,8.22,7.916,8.08,7.676,8.704
7.96,7.976,8.096,8.188,8.74,8.164,7.86,7.944,7.792,8.672
7.968,8.04,8.136,8.24,8.132,8.196,7.852,7.904,8.092,8.612
7.896,8.052,8.104,8.288,8.232,8.272,7.868,8.028,8.2,8.548
7.88,8.02,8.032,8.252,8.688,8.24,7.872,8.088,7.928,8.516
7.908,7.996,8.088,8.232,8.556,8.136,7.856,7.964,7.88,8.46
7.944,8.02,8.16,8.264,7.924,8.096,7.86,7.888,8.076,8.42
7.904,8.068,8.124,8.32,7.784,8.136,7.852,7.98,8.132,8.34
7.868,8.044,8.008,8.312,8.368,8.136,7.86,8.104,8.112,8.268
7.936,8.008,8.084,8.264,8.456,8.048,7.872,8.004,8.16,8.216
7.956,8.004,8.18,8.268,7.852,7.984,7.852,7.876,8.388,8.184
7.908,8.056,8.152,8.376,7.544,8.06,7.844,7.996,8.296,8.156
7.852,8.056,8.088,8.36,8.192,8.084,7.844,8.092,7.792,8.128
7.916,8.008,8.112,8.324,8.428,7.996,7.84,8.032,7.896,8.1
7.916,7.992,8.188,8.356,7.872,7.94,7.852,7.908,8.104,8.096
7.884,8.036,8.188,8.416,7.448,8,7.836,7.968,8.24,8.048
7.86,8.068,8.128,8.42,8.068,8.032,7.868,8.1,8.128,8.044
7.896,8.028,8.168,8.412,8.424,7.984,7.856,8.072,8.08,8.032
7.944,8.032,8.236,8.416,7.904,7.924,7.836,7.896,8.308,8.036
7.904,8.108,8.264,8.476,7.452,7.964,7.828,7.956,8.452,8.028
7.836,8.148,8.228,8.544,7.968,8.048,7.844,8.1,8.232,8.004
7.888,8.12,8.212,8.528,8.388,8.028,7.828,8.112,7.78,8.028
7.92,8.08,8.268,8.512,8.004,7.944,7.824,7.896,7.916,8.028
7.916,8.128,8.344,8.584,7.512,7.96,7.828,7.92,8.328,8.016
7.844,8.16,8.32,8.66,7.86,8.04,7.836,8.048,8.424,7.996
7.908,8.14,8.236,8.64,8.328,8.028,7.872,8.068,8.136,7.992
7.96,8.156,8.368,8.632,8.108,7.956,7.84,7.948,8.108,8.028
7.912,8.192,8.448,8.704,7.604,7.964,7.828,7.896,8.14,8.024
7.868,8.208,8.464,8.828,7.712,8.036,7.828,8.048,8.16,8.012
7.876,8.144,8.392,8.82,8.28,8.04,7.844,8.1,8.24,8.008
7.944,8.096,8.516,8.788,8.236,7.948,7.836,7.964,8.268,8.04
7.912,8.06,8.596,8.908,7.696,7.94,7.82,7.884,8.376,8.028
7.856,8.1,8.596,9.004,7.604,8.072,7.832,8.02,8.276,8.016
7.848,8.088,8.576,9.016,8.176,8.196,7.8,8.108,8.144,8.004
7.908,8.048,8.68,9.004,8.34,8.524,7.824,7.996,8.164,8.032
7.94,8.056,8.824,9.108,7.756,9.276,7.804,7.916,8.588,8.024
7.896,8.056,8.844,9.244,7.476,9.672,7.812,8.016,8.544,8.016
7.856,8.032,8.784,9.264,8.14,9.684,7.84,8.096,8.2,8.032
7.892,8,8.9,9.26,8.336,9.12,7.82,8.064,8.312,8.044
7.928,7.968,9.004,9.32,7.872,8.532,7.8,7.908,8.492,8.04
7.892,8.012,9.04,9.376,7.452,8.256,7.812,8.012,8.34,8.012
7.86,8.016,9.004,9.424,8.068,8.2,7.812,8.188,8.188,8.02
7.924,7.964,9.044,9.444,8.408,7.976,7.804,8.172,8.16,8.036
8,7.948,9.164,9.424,7.908,7.844,7.812,8.052,8.468,8.036
8.004,7.996,9.196,9.496,7.472,7.9,7.78,8.056,8.6,8.02
7.952,8.016,9.148,9.504,7.984,7.968,7.796,8.22,8.472,8.036
8.008,7.972,9.064,9.452,8.404,8.032,7.788,8.216,8.572,8.052
8.076,7.972,9.12,9.396,8.008,8.024,7.792,8.052,8.696,8.052
8.06,8.004,9.112,9.392,7.556,8.044,7.768,8.048,8.516,8.02
8.048,8.004,8.964,9.348,7.896,8.132,7.784,8.192,8.596,8.004
8.08,7.896,8.788,9.256,8.344,8.128,7.78,8.192,8.448,8.016
8.136,7.828,8.792,9.152,8.096,8.064,7.792,8.048,8.504,8.036
8.072,7.888,8.78,9.076,7.6,8.068,7.74,8,8.764,8.036
8.016,8.064,8.616,9.028,7.74,8.152,7.776,8.136,8.94,8.024
8.02,8.336,8.416,8.924,8.276,8.16,7.768,8.176,8.828,8.036
8.048,8.8,8.416,8.752,8.244,8.072,7.788,8.02,8.5,8.052
8.04,9.376,8.416,8.66,7.676,8.064,7.776,7.892,8.472,8.04
7.956,10.068,8.284,8.656,7.576,8.148,7.772,8.008,8.448,8.012
7.964,10.316,8.136,8.54,8.204,8.18,7.804,8.088,8.3,8.016
7.996,9.936,8.156,8.4,8.332,8.088,7.78,7.98,8.476,8.044
7.952,9.332,8.204,8.372,7.736,8.104,7.768,7.824,8.424,8.052
7.864,8.908,8.128,8.376,7.448,8.172,7.768,7.912,8.288,8.048
7.852,8.416,8.008,8.3,8.116,8.22,7.768,8.028,8.352,8.064
7.888,7.892,8.016,8.176,8.396,8.144,7.776,7.996,7.992,8.088
7.88,7.78,8.084,8.148,7.816,8.108,7.76,7.828,7.96,8.112
7.836,7.968,8.02,8.184,7.428,8.172,7.764,7.864,8.02,8.108
7.816,8.032,7.944,8.128,8.012,8.22,7.768,8.012,8,8.064
7.86,8.052,7.92,8.084,8.348,8.184,7.78,8.004,7.992,8.112
7.908,8.072,8.012,8.024,7.896,8.152,7.752,7.84,8.172,8.14
7.864,8.116,8.02,8.068,7.416,8.176,7.764,7.864,8.372,8.2
7.832,8.136,7.94,8.096,7.908,8.276,7.764,7.976,8.052,8.236
7.868,8.08,7.904,8.02,8.344,8.24,7.788,7.996,8.008,8.26
7.936,8.064,7.984,7.992,7.972,8.176,7.744,7.836,8.256,8.26
7.88,8.096,8.012,8.02,7.508,8.188,7.772,7.848,8.26,8.212
7.784,8.108,7.94,8.028,7.832,8.272,7.784,8.012,8.196,8.132
7.776,8.076,7.872,8.036,8.288,8.272,7.776,8.02,7.964,8.128
7.956,8.056,7.96,7.96,8.068,8.216,7.768,7.856,8.092,8.132
8.288,8.1,8.04,8.024,7.552,8.232,7.776,7.84,8.072,8.104
8.716,8.116,7.96,8.072,7.684,8.32,7.764,7.956,7.992,8.064
9.324,8.08,7.864,8.036,8.224,8.32,7.788,7.896,7.688,8.068
10.092,8.056,7.944,7.984,8.204,8.26,7.784,7.692,7.68,8.056
10.784,8.06,8.032,8.012,7.616,8.264,7.78,7.604,8.036,8.024
11.172,8.108,7.96,8.068,7.54,8.34,7.752,7.928,7.964,7.984
10.72,8.124,7.844,8.024,8.156,8.388,7.788,8.328,7.688,7.988
9.42,8.06,7.952,7.968,8.312,8.324,7.784,8.728,7.86,8
8.372,8.096,8.028,8.004,7.696,8.316,7.764,9.2,8.136,8.016
7.872,8.116,7.952,8.044,7.436,8.4,7.76,9.836,8.404,8.004
7.796,8.152,7.904,8.056,8.076,8.48,7.776,10.628,7.94,7.98
7.888,8.088,7.9,7.984,8.356,8.432,7.8,10.916,7.716,7.996
7.932,8.1,7.992,7.98,7.808,8.404,7.78,10.22,7.916,7.992
7.948,8.136,7.968,8.036,7.396,8.468,7.76,9.196,7.944,7.984
7.956,8.156,7.9,8.028,8.008,8.568,7.792,8.676,7.944,7.98
8.036,8.128,7.928,7.992,8.356,8.544,7.776,8.344,7.884,8
8.06,8.116,7.984,8.012,7.904,8.54,7.776,7.948,7.932,8.02
8.012,8.144,7.984,8.052,7.412,8.588,7.776,7.836,8.048,7.996
7.964,8.2,7.92,8.048,7.932,8.688,7.76,8.02,8.128,7.956
7.972,8.148,7.88,7.984,8.324,8.728,7.796,8.124,7.884,8
8.032,8.14,8,8,7.984,8.692,7.776,8.032,7.752,7.956
7.996,8.176,7.988,8.048,7.508,8.728,7.808,8.024,7.908,7.848
7.948,8.216,7.948,8.048,7.82,8.812,7.808,8.168,8,7.816
8.016,8.188,7.876,7.988,8.268,8.824,7.808,8.156,7.948,8
8.076,8.172,7.984,7.964,8.084,8.776,7.8,8.008,7.912,8.332
8.016,8.216,8.016,8.004,7.576,8.808,7.768,7.948,8.052,8.88
7.976,8.276,7.976,8.072,7.68,8.916,7.796,8.068,8.184,9.508
8.008,8.24,7.86,8.012,8.248,8.936,7.796,8.124,8.032,10.136
8.076,8.22,7.924,7.952,8.18,8.86,7.796,8.012,7.864,10.752
8.064,8.264,8.032,7.964,7.668,8.828,7.796,7.956,8.028,11.116
8.04,8.316,7.948,8.024,7.54,8.876,7.804,8.08,8.056,11.212
8.028,8.316,7.876,7.996,8.184,8.868,7.824,8.148,7.964,10.944
8.116,8.268,7.896,7.956,8.336,8.724,7.804,8.068,7.88,9.84
8.104,8.3,8.024,7.98,7.776,8.716,7.764,7.956,7.932,8.596
8.096,8.384,7.968,8.012,7.4,8.708,7.768,8.052,8.304,7.884
8.076,8.416,7.884,7.996,8.104,8.668,7.792,8.168,8.132,7.652
8.14,8.38,7.88,7.928,8.38,8.548,7.796,8.088,7.732,7.668
8.164,8.412,8.008,7.964,7.848,8.432,7.808,7.956,7.8,7.8
8.168,8.484,7.968,7.996,7.396,8.392,7.82,8.02,7.936,7.888
8.144,8.516,7.88,7.988,8.036,8.4,7.816,8.192,7.868,7.948
8.18,8.508,7.864,7.948,8.356,8.328,7.796,8.176,7.716,8.068
8.248,8.524,7.952,7.912,7.92,8.232,7.78,8.016,7.872,8.096
8.196,8.6,7.976,7.976,7.388,8.212,7.784,8.044,8.02,8.036
8.168,8.652,7.896,7.992,7.928,8.264,7.772,8.2,7.948,8.036
8.216,8.652,7.84,7.932,8.356,8.224,7.784,8.192,7.868,8.016
8.308,8.692,7.924,7.932,7.964,8.116,7.8,8.044,7.84,8.024
8.276,8.716,7.96,7.968,7.56,8.088,7.776,8.024,8.048,8.024
8.252,8.836,7.904,7.94,7.848,8.144,7.812,8.196,8.048,8.004
8.332,8.82,7.828,7.944,8.296,8.124,7.82,8.228,7.936,8.044
8.4,8.824,7.936,7.916,8.12,8.04,7.788,8.1,8.212,8.048
8.404,8.88,7.98,7.94,7.672,8.036,7.776,8.064,8.352,8.052
8.372,8.964,7.928,7.98,7.74,8.104,7.788,8.228,8.284,8.04
8.408,8.968,7.844,7.972,8.328,8.112,7.808,8.256,8.108,8.06
8.54,8.968,7.912,7.932,8.3,8.008,7.776,8.14,8.14,8.064
8.556,8.992,7.972,7.944,7.772,8,7.796,8.068,8.032,8.076
8.548,9.06,7.932,7.988,7.596,8.072,7.784,8.192,7.972,8.068
8.632,9.06,7.832,7.944,8.252,8.104,7.804,8.316,8.02,8.044
8.708,9.016,7.864,7.92,8.432,8.004,7.788,8.232,8.348,8.092
8.748,9.024,7.964,7.936,7.904,7.98,7.772,8.132,8.404,8.132
8.78,9.036,7.9,8,7.54,8.068,7.736,8.232,8.296,8.104
8.788,8.968,7.832,7.944,8.228,8.1,7.796,8.38,7.944,8.084
8.88,8.908,7.848,7.924,8.48,8.012,7.8,8.336,7.972,8.092
8.952,8.824,7.94,7.896,7.932,7.972,7.768,8.216,8.108,8.136
8.952,8.816,7.932,7.972,7.496,8.032,7.78,8.264,8.14,8.132
8.988,8.776,7.816,7.968,8.152,8.064,7.792,8.444,8.14,8.112
9.052,8.648,7.856,7.956,8.484,8.052,7.796,8.428,8.14,8.136
9.12,8.568,7.912,7.932,8.024,7.988,7.796,8.296,8.32,8.168
9.104,8.536,7.932,7.988,7.624,8.036,7.756,8.368,7.908,8.152
9.064,8.496,7.856,7.996,8.076,8.08,7.78,8.544,7.832,8.164
9.084,8.392,7.824,7.948,8.444,8.06,7.796,8.56,7.832,8.184
9.1,8.304,7.9,7.936,8.028,8.008,7.776,8.412,7.864,8.196
9.004,8.292,7.944,7.956,7.592,8.012,7.792,8.432,8.072,8.204
8.876,8.288,7.872,7.992,7.828,8.068,7.812,8.648,8.188,8.208
8.788,8.208,7.808,7.948,8.244,8.096,7.8,8.68,7.904,8.22
8.724,8.172,7.892,7.904,8.1,8.016,7.776,8.524,7.652,8.232
8.596,8.164,7.976,7.94,7.644,8.036,7.752,8.54,7.94,8.276
8.464,8.18,7.908,7.992,7.664,8.1,7.784,8.724,8.324,8.288
8.368,8.136,7.764,7.952,8.232,8.124,7.776,8.824,7.736,8.308
8.348,8.092,7.86,7.9,8.196,8.04,7.76,8.74,7.528,8.32
8.288,8.116,7.968,7.924,7.692,8.024,7.76,8.696,7.812,8.38
8.176,8.128,7.916,7.968,7.504,8.1,7.764,8.836,7.932,8.38
8.124,8.08,7.8,7.944,8.16,8.132,7.792,8.92,8.084,8.404
8.12,8.044,7.876,7.924,8.288,8.072,7.78,8.884,8.24,8.46
8.12,8.056,7.952,7.936,7.728,8.056,7.776,8.808,8.056,8.496
8.04,8.096,7.936,7.976,7.26,8.108,7.76,8.928,7.816,8.512
7.968,8.092,7.856,7.972,7.952,8.152,7.776,9.028,8.02,8.532
8.008,8.048,7.888,7.904,8.216,8.068,7.784,8.964,8.028,8.596
8.036,8.044,7.984,7.944,7.788,8.024,7.764,8.8,7.884,8.636
8.016,8.072,7.992,7.98,7.652,8.056,7.78,8.824,7.624,8.66
7.936,8.096,7.908,7.972,9.052,8.136,7.804,8.892,7.748,8.668
7.988,8.056,7.904,7.916,10.28,8.072,7.816,8.772,8.036,8.708
8.02,8.044,8.044,7.94,10.612,8.012,7.82,8.528,8.244,8.784
7.984,8.072,8.036,7.972,10.676,8.056,7.824,8.496,8.616,8.804
7.916,8.112,8,7.96,10.792,8.116,7.888,8.596,8.828,8.776
7.98,8.072,7.944,7.936,10.524,8.12,7.944,8.488,9.26,8.816
8.02,8.06,8.056,7.904,9.364,8.024,7.992,8.272,10.008,8.816
8,8.076,8.184,7.956,8.132,8.028,7.988,8.192,11.088,8.788
7.944,8.112,8.144,7.952,7.804,8.092,7.924,8.296,11.3,8.744
7.928,8.064,8.068,7.964,8.076,8.1,7.932,8.264,9.792,8.704
7.996,8.04,8.084,7.928,7.74,8.028,7.916,8.108,8.58,8.656
7.988,8.08,8.148,7.936,7.132,8.02,7.924,8.012,8.164,8.612
7.932,8.112,8.092,7.984,7.28,8.068,7.952,8.124,8.056,8.52
7.944,8.072,8,7.932,8.028,8.104,7.936,8.168,8.052,8.476
8.008,8.02,8.06,7.904,8.212,8.008,7.932,8.036,8.296,8.436
8.016,8.048,8.116,7.952,7.804,8.004,7.86,7.944,8.444,8.372
7.968,8.096,8.068,7.996,7.672,8.08,7.812,8.06,8.256,8.308
7.948,8.076,8,7.964,8.332,8.1,7.836,8.14,7.78,8.26
8.004,8.028,7.988,7.904,8.488,8.024,7.8,8.056,7.952,8.228
8.016,8.044,8.028,7.932,7.972,8.004,7.804,7.908,8.484,8.208
7.944,8.096,7.956,7.996,7.564,8.056,7.82,8.036,8.296,8.16
7.928,8.084,7.872,7.948,8.272,8.12,7.836,8.14,7.84,8.132
8.004,8.048,7.872,7.912,8.532,8.024,7.804,8.084,7.488,8.124
8.008,8.044,7.956,7.932,8.068,8.004,7.784,7.928,7.764,8.136
7.976,8.056,7.924,8,7.572,8.048,7.764,7.988,8.312,8.088
7.956,8.096,7.864,7.976,8.204,8.096,7.72,8.14,8.116,8.068
7.992,8.02,7.852,7.932,8.536,8.052,7.74,8.112,7.824,8.088
8.008,8.02,7.928,7.924,8.16,8.004,7.724,7.956,7.956,8.08
7.98,8.076,7.916,7.968,7.672,8.028,7.696,7.98,7.904,8.108
7.948,8.068,7.852,7.96,8.148,8.084,7.696,8.128,7.744,8.072
7.956,8.028,7.8,7.952,8.556,8.08,7.728,8.112,7.64,8.076
8.04,7.992,7.876,7.948,8.272,8.008,7.724,7.968,7.892,8.092
8.008,8.06,7.932,7.948,7.768,8.008,7.74,7.944,8.276,8.088
7.92,8.08,7.864,7.976,8.052,8.052,7.716,8.104,8.012,8.08
7.96,8.036,7.78,7.956,8.516,8.092,7.724,8.108,7.768,8.088
8.008,8,7.884,7.908,8.404,8,7.716,7.992,7.972,8.1
7.98,8.02,7.908,7.956,7.884,8.02,7.712,7.96,8.508,8.088
7.94,8.068,7.88,8.004,7.952,8.092,7.72,8.112,8.056,8.084
7.92,8.028,7.8,7.972,8.532,8.112,7.716,8.16,7.816,8.088
7.988,8.008,7.84,7.932,8.56,8.012,7.724,8.032,8.056,8.068
7.988,8.012,7.956,7.948,8.016,8.02,7.712,7.924,7.88,8.108
7.956,8.064,7.896,7.992,7.852,8.068,7.732,8.08,7.972,8.076
7.932,8.048,7.808,7.932,8.544,8.092,7.74,8.176,7.876,8.088
7.984,8.02,7.844,7.932,8.708,8.008,7.748,8.068,7.8,8.12
7.952,8.012,7.976,7.956,8.212,8,7.74,7.952,8.052,8.12
7.94,8.028,7.912,8.008,7.82,8.072,7.764,8.02,8.176,8.088
7.904,8.036,7.832,7.968,8.552,8.108,7.764,8.168,8.112,8.08
7.96,7.984,7.848,7.94,8.852,8.032,7.768,8.088,8.072,8.088
7.96,7.988,7.896,7.944,8.38,8.004,7.768,7.948,7.98,8.116
7.952,8.028,7.796,7.996,7.904,8.032,7.748,8.004,8.088,8.08
7.92,8.064,7.744,7.98,8.564,8.076,7.792,8.136,8.132,8.084
7.932,7.996,7.912,7.932,8.932,8.04,7.748,8.104,8.136,8.072
7.972,7.968,8.312,7.928,8.56,7.988,7.656,7.948,8.124,8.124
7.932,8.004,8.768,7.98,8.072,8.024,7.576,7.964,8.228,8.104
7.908,8.06,9.42,7.976,8.6,8.068,7.592,8.116,8.34,8.088
7.924,7.996,10.04,7.96,9.04,8.08,7.804,8.108,8.3,8.084
7.976,7.976,10.876,7.928,8.756,8.004,8.372,7.932,8.216,8.096
7.94,8.012,10.68,7.96,8.268,8.008,9.508,7.944,8.304,8.092
7.884,8.032,9.576,7.992,8.6,8.052,10.876,8.092,8.28,8.084
7.892,8.02,8.904,7.948,9.14,8.08,12.136,8.12,8.252,8.06
7.952,7.988,8.628,7.936,9.028,8,13.096,7.96,8.296,8.104
7.952,8.02,8.296,7.988,8.54,8,12.536,7.912,8.452,8.08
7.876,8.024,7.916,7.984,8.64,8.056,10.864,8.036,8.52,8.084
7.904,7.992,7.584,7.944,9.28,8.092,8.98,8.116,8.584,8.068
7.956,7.964,7.58,7.92,9.344,8.016,7.912,7.98,8.46,8.072
7.928,8.004,7.756,7.936,8.832,7.98,7.724,7.896,8.34,8.096
7.896,8.02,7.884,7.992,8.636,8.064,7.724,8.032,8.236,8.072
7.896,8.004,7.9,7.976,9.404,8.092,7.736,8.104,8.324,8.076
7.952,7.98,7.988,7.932,9.62,8.028,7.844,8.036,8.528,8.124
7.944,7.98,8.124,7.964,9.1,8.004,7.936,7.892,8.564,8.136
7.912,8.032,8.052,8,8.708,8.028,8.028,7.98,8.564,8.128
7.884,8.032,7.96,7.98,9.424,8.116,8.036,8.084,8.404,8.152
7.936,7.976,7.976,7.932,9.668,8.036,8.012,8.04,8.472,8.148
7.964,7.976,8.088,7.96,9.148,7.98,7.952,7.872,8.688,8.168
7.92,8.02,8.056,7.988,8.592,8.036,7.932,7.948,8.58,8.136
7.876,8.052,7.984,7.96,9.164,8.108,7.896,8.084,8.376,8.172
7.94,7.976,7.988,7.94,9.376,8.06,7.9,8.04,8.64,8.248
7.932,7.968,8.064,7.948,8.876,8.02,7.888,7.896,8.436,8.32
7.912,8.008,8.064,7.968,8.28,8.076,7.904,7.916,8.7,8.312
7.864,8.032,8.024,7.988,8.64,8.136,7.896,8.092,8.412,8.296
7.912,7.98,7.956,7.948,8.964,8.14,7.928,8.068,7.908,8.268
7.948,7.96,8.056,7.936,8.576,8.088,7.92,7.912,8.024,8.216
7.952,8.012,8.096,7.968,7.964,8.112,7.876,7.884,8.128,8.188
7.888,8.028,8.04,7.992,8.176,8.164,7.908,8.04,7.956,8.14
7.888,8,7.976,7.968,8.596,8.208,7.892,8.044,7.952,8.136
7.964,7.952,8.088,7.92,8.372,8.156,7.888,7.904,7.856,8.104
7.92,8.008,8.156,7.972,7.8,8.152,7.916,7.868,8.192,8.128
7.868,8.04,8.084,8.008,7.796,8.216,7.928,8.024,8.296,8.088
7.888,8.008,8.024,7.972,8.38,8.268,7.952,8.072,8.228,8.048
7.928,7.96,8.116,7.96,8.372,8.16,7.948,7.988,8.368,8.056
7.94,7.98,8.18,7.992,7.788,8.144,7.928,7.892,8.008,8.048
7.892,8.052,8.124,8.06,7.56,8.18,7.96,7.988,7.64,8.032
7.86,8.016,8.016,8.012,8.228,8.188,7.964,8.096,7.5,8.028
7.924,7.976,8.072,7.996,8.416,8.104,7.968,8.004,7.552,8.024
7.94,7.976,8.168,8,7.832,8.084,7.968,7.876,7.896,8.06
7.872,8.024,8.2,8.068,7.388,8.12,7.988,7.98,8.064,8.056
7.888,8.012,8.14,8.072,8.152,8.144,7.988,8.096,7.84,8.032
7.96,7.976,8.152,8.052,8.42,8.044,8.036,8.044,7.852,8.044
7.96,7.972,8.224,8.052,7.904,7.984,8,7.88,7.856,8.04
7.92,7.992,8.208,8.172,7.42,8,8.004,7.92,7.952,8.04
7.864,8.024,8.204,8.18,8.056,8.02,8.036,8.072,8.016,8
7.912,7.98,8.18,8.192,8.392,7.988,8.032,8.056,7.888,8.028
7.948,7.988,8.296,8.14,7.952,7.948,8.028,7.892,7.664,8.06
7.912,7.988,8.316,8.128,7.476,7.988,8.04,7.916,7.764,8.044
7.84,8.036,8.304,8.108,7.952,8.044,8.116,8.1,8.052,7.988
7.916,7.992,8.248,8.056,8.368,8.028,8.108,8.08,8.132,7.896
7.944,7.964,8.352,8.012,8.016,7.936,8.092,7.944,8.012,7.904
7.912,8.016,8.46,8.032,7.56,7.968,8.112,7.992,7.896,8.04
7.868,8.04,8.448,8.024,7.808,8.004,8.136,8.176,7.8,8.364
7.904,7.976,8.396,8.02,8.336,8.048,8.16,8.2,7.668,8.94
7.968,7.96,8.54,8.004,8.148,7.948,8.132,8.072,7.844,9.6
7.932,7.98,8.628,8.04,7.624,7.956,8.164,7.996,7.832,10.224
7.84,8.056,8.6,8.072,7.656,8.028,8.18,8.164,7.932,10.82
7.888,7.996,8.58,7.956,8.288,8.056,8.212,8.228,8.256,11.168
7.956,7.96,8.708,7.92,8.268,7.972,8.256,8.12,8.292,11.284
7.948,8,8.828,7.916,7.728,7.972,8.224,8.024,7.832,10.972
7.892,8.032,8.852,7.968,7.52,8.044,8.276,8.112,7.444,9.844
7.88,8.008,8.828,7.952,8.22,8.084,8.368,8.212,7.804,8.536
7.968,8,8.904,7.896,8.352,7.992,8.352,8.156,8.024,7.856
7.952,7.976,9.032,7.932,7.824,8.044,8.34,7.988,7.92,7.628
7.92,8.008,9.04,8,7.436,8.204,8.388,8.064,7.644,7.624
7.88,8.048,9.028,7.944,8.168,8.664,8.48,8.188,8.024,7.74
7.948,8.008,9.06,7.936,8.408,9.34,8.528,8.104,8.18,7.888
7.976,8.024,9.156,7.908,7.92,9.676,8.56,7.928,7.66,8.024
7.928,8.068,9.18,7.972,7.48,9.716,8.616,7.992,7.624,8.112
7.868,8.128,9.112,7.96,8.052,9.308,8.684,8.1,7.832,8.088
7.904,8.072,9.036,7.92,8.416,8.68,8.756,7.984,7.836,8.092
7.964,8.052,9.088,7.94,7.956,8.252,8.808,7.824,8.02,8.1
7.92,8.076,9.036,7.956,7.512,8.116,8.864,7.868,8.028,8.08
7.844,8.128,8.904,7.896,7.964,8.024,8.948,8.024,8.116,8.06
7.92,8.096,8.752,7.864,8.376,7.964,9.028,8,7.632,8.068
7.992,8.128,8.724,7.924,8.06,7.868,9.096,7.856,7.712,8.096
7.98,8.156,8.66,8.204,7.564,7.848,9.116,7.848,8.028,8.092
7.94,8.16,8.516,8.668,7.816,8.044,9.16,8.008,8.108,8.08
7.996,8.096,8.348,9.196,8.32,8.132,9.212,8,7.792,8.08
8.056,8.048,8.332,9.788,8.128,8.072,9.212,7.872,7.652,8.124
8.04,8.052,8.336,10.46,7.64,8.068,9.172,7.82,7.864,8.112
8.036,8.064,8.244,10.556,7.648,8.136,9.172,7.972,8.012,8.088
8.104,8.056,8.12,9.7,8.244,8.164,9.084,8.036,8.004,8.096
8.18,7.988,8.116,8.864,8.252,8.068,9.004,7.952,8.104,8.116
8.132,8.008,8.164,8.388,7.712,8.044,8.86,7.832,7.868,8.092
8.052,8.028,8.06,7.952,7.476,8.124,8.776,7.948,7.66,8.108
8.008,8,7.952,7.612,8.184,8.168,8.652,8.052,7.584,8.12
8.092,7.952,7.984,7.412,8.336,8.076,8.556,7.98,7.72,8.148
8.076,7.96,8.056,7.348,7.788,8.06,8.44,7.844,8.244,8.16
8.016,7.972,8.056,7.44,7.392,8.112,8.328,7.884,8.24,8.132
8.004,7.98,7.928,7.38,8.088,8.184,8.268,7.92,7.92,8.116
7.996,7.928,7.924,7.404,8.372,8.112,8.18,7.72,7.752,8.172
7.988,7.944,8.016,7.492,7.852,8.092,8.092,7.656,7.884,8.18
7.944,7.996,7.992,7.668,7.432,8.1,8.02,7.988,8.432,8.192
7.888,7.996,7.932,7.732,8.024,8.2,7.996,8.504,8.156,8.164
7.872,7.94,7.896,7.812,8.364,8.14,7.972,8.96,7.592,8.196
7.932,7.928,7.968,7.916,7.9,8.132,7.924,9.348,7.792,8.204
7.908,7.976,7.984,8.02,7.464,8.12,7.876,9.952,8.116,8.22
7.848,7.952,7.92,8.016,7.888,8.212,7.872,10.788,8.084,8.212
7.872,7.86,7.884,8.04,8.332,8.208,7.868,10.94,7.94,8.232
7.916,7.744,7.936,8.016,7.988,8.132,7.824,9.956,8.092,8.256
7.896,7.84,7.988,8.06,7.52,8.148,7.816,8.912,8.092,8.284
7.856,8.068,7.928,8.08,7.756,8.22,7.816,8.52,8.244,8.276
7.872,8.356,7.868,8.096,8.296,8.244,7.804,8.268,8.284,8.308
7.932,8.864,7.944,8.088,8.096,8.168,7.784,7.964,7.872,8.332
7.908,9.432,7.984,8.092,7.572,8.168,7.768,7.784,7.96,8.352
7.832,10.1,7.948,8.152,7.596,8.24,7.788,8.004,8.24,8.352
7.716,10.256,7.848,8.108,8.224,8.304,7.772,8.184,7.94,8.38
7.848,9.816,7.892,8.108,8.232,8.192,7.776,8.148,7.856,8.42
8.112,9.252,8,8.12,7.66,8.196,7.744,8.012,7.976,8.448
8.584,8.844,7.94,8.192,7.46,8.28,7.764,8.108,7.956,8.472
9.144,8.332,7.86,8.176,8.18,8.32,7.768,8.188,7.908,8.488
9.872,7.86,7.896,8.124,8.32,8.236,7.736,8.096,7.856,8.56
10.628,7.764,7.98,8.144,7.744,8.232,7.74,7.956,7.652,8.592
11.088,7.924,7.984,8.22,7.36,8.304,7.768,8.04,7.972,8.604
10.928,8.008,7.892,8.216,8.084,8.368,7.78,8.176,7.956,8.628
9.82,8.008,7.88,8.16,8.356,8.328,7.748,8.12,7.944,8.68
8.7,8.024,7.984,8.188,7.812,8.32,7.748,7.964,7.592,8.732
7.992,8.084,7.992,8.228,7.396,8.356,7.76,8.028,7.676,8.748
7.708,8.12,7.912,8.24,7.984,8.428,7.744,8.196,7.664,8.764
7.808,8.048,7.88,8.212,8.344,8.42,7.748,8.14,7.564,8.812
7.892,8.028,7.944,8.2,7.884,8.388,7.756,7.992,7.812,8.86
7.908,8.068,8,8.284,7.436,8.412,7.744,8.016,7.88,8.836
7.876,8.1,7.932,8.276,7.868,8.52,7.748,8.192,7.94,8.824
7.952,8.044,7.872,8.264,8.304,8.54,7.768,8.168,7.7,8.804
8.016,8.028,7.912,8.248,7.972,8.516,7.752,8.02,7.616,8.756
8.012,8.072,7.968,8.304,7.488,8.528,7.732,8.016,7.72,8.724
7.944,8.092,7.932,8.356,7.724,8.632,7.744,8.156,7.82,8.652
7.936,8.064,7.872,8.348,8.268,8.696,7.76,8.2,7.752,8.6
8.04,8.04,7.944,8.328,8.1,8.62,7.712,8.068,7.8,8.552
7.996,8.056,8.008,8.368,7.548,8.66,7.736,8.036,7.864,8.504
7.944,8.132,7.932,8.432,7.552,8.748,7.776,8.172,7.624,8.412
7.924,8.088,7.872,8.412,8.2,8.816,7.748,8.236,7.708,8.36
8.02,8.044,7.908,8.408,8.208,8.736,7.764,8.12,8.172,8.348
8.012,8.064,7.976,8.436,7.628,8.76,7.76,8.04,8.756,8.268
8,8.128,7.908,8.504,7.408,8.828,7.744,8.14,9.14,8.232
7.976,8.12,7.844,8.544,8.14,8.88,7.732,8.24,10.028,8.204
8.044,8.08,7.88,8.52,8.296,8.792,7.736,8.192,10.788,8.184
8.072,8.076,7.948,8.568,7.716,8.764,7.736,8.068,10.6,8.176
8.052,8.12,7.92,8.64,7.352,8.8,7.732,8.16,10.16,8.132
8.02,8.108,7.88,8.656,8.048,8.812,7.748,8.328,9.12,8.08
8.104,8.08,7.816,8.656,8.312,8.7,7.748,8.272,8.552,8.092
8.12,8.104,7.936,8.72,7.8,8.624,7.708,8.124,8.084,8.1
8.092,8.144,7.94,8.808,7.36,8.58,7.72,8.18,7.94,8.072
8.052,8.164,7.868,8.836,7.972,8.564,7.728,8.344,7.888,8.064
8.1,8.132,7.852,8.888,8.308,8.464,7.72,8.296,7.876,8.076
8.14,8.136,7.928,8.924,7.844,8.348,7.724,8.164,7.932,8.108
8.14,8.156,7.94,8.996,7.4,8.324,7.704,8.212,7.988,8.064
8.08,8.228,7.86,9.044,7.824,8.36,7.736,8.396,7.764,8.064
8.132,8.156,7.824,9.08,8.268,8.296,7.748,8.368,7.668,8.08
8.228,8.168,7.884,9.136,7.968,8.176,7.716,8.264,7.992,8.084
8.192,8.208,7.936,9.192,7.48,8.144,7.7,8.26,8.148,8.068
8.14,8.244,7.892,9.292,7.72,8.196,7.68,8.448,7.748,8.076
8.188,8.208,7.84,9.292,8.264,8.18,7.7,8.5,7.668,8.088
8.28,8.2,7.896,9.3,8.084,8.068,7.708,8.404,7.828,8.1
8.276,8.232,7.96,9.404,7.552,8.044,7.696,8.356,8.032,8.104
8.236,8.304,7.884,9.46,7.536,8.108,7.684,8.512,7.984,8.08
8.244,8.296,7.804,9.424,8.228,8.144,7.708,8.62,7.72,8.06
8.376,8.288,7.832,9.42,8.276,8.04,7.688,8.568,7.864,8.072
8.384,8.3,7.928,9.452,7.748,8,7.692,8.484,8.108,8.104
8.356,8.372,7.912,9.504,7.5,8.064,7.696,8.62,7.872,8.072
8.38,8.38,7.824,9.448,8.204,8.1,7.7,8.752,7.78,8.064
8.464,8.36,7.836,9.372,8.388,7.996,7.684,8.704,7.764,8.096
8.508,8.408,7.936,9.316,7.82,7.984,7.684,8.588,8.048,8.1
8.528,8.444,7.9,9.308,7.448,8.008,7.704,8.712,8.064,8.08
8.532,8.476,7.844,9.208,8.148,8.084,7.724,8.888,8.052,8.056
8.648,8.468,7.812,9.084,8.456,8.016,7.696,8.868,7.54,8.072
8.688,8.508,7.876,8.976,7.948,7.976,7.688,8.712,7.72,8.076
8.74,8.616,7.888,8.944,7.48,7.988,7.696,8.832,7.988,8.08
8.732,8.66,7.836,8.82,8.06,8.044,7.692,9.024,7.816,8.076
8.828,8.636,7.808,8.728,8.42,8.008,7.692,8.992,8.012,8.084
8.92,8.632,7.9,8.628,8,7.936,7.656,8.856,7.936,8.092
8.916,8.724,7.892,8.58,7.496,7.984,7.676,8.896,7.688,8.068
8.9,8.828,7.872,8.46,7.936,8.048,7.696,9.064,7.788,8.052
9.004,8.78,7.804,8.396,8.42,8.044,7.684,9.028,7.696,8.06
9.056,8.82,7.884,8.308,8.116,7.996,7.68,8.844,7.876,8.072
9.096,8.888,7.96,8.28,7.58,7.968,7.684,8.764,8.352,8.048
9.048,8.964,7.924,8.244,7.728,8.04,7.68,8.852,8.192,8.032
9.084,8.944,7.848,8.2,8.264,8.048,7.7,8.804,8.004,8.048
9.144,8.968,7.924,8.124,8.092,7.976,7.684,8.612,7.928,8.048
9.096,9,8.02,8.088,7.556,7.988,7.688,8.472,7.796,8.08
9.008,9.064,7.972,8.092,7.492,8.056,7.692,8.504,7.932,8.064
8.904,9.048,7.92,8.028,8.18,8.104,7.704,8.508,7.904,8.072
8.864,9.02,7.944,8.008,8.2,7.996,7.692,8.324,7.94,8.092
8.74,9.016,8.028,8.008,7.656,7.952,7.66,8.18,8.092,8.116
8.608,9.016,8,8.028,7.364,8.052,7.696,8.252,8.24,8.1
8.464,8.972,8.004,8.004,8.108,8.104,7.68,8.312,8.144,8.108
8.452,8.908,8.072,7.98,8.284,8,7.68,8.192,7.988,8.128
8.38,8.86,8.172,7.96,7.748,7.976,7.668,8.008,8.064,8.116
8.268,8.824,8.128,8.028,7.316,8.044,7.668,8.072,8.132,8.144
8.14,8.756,8.084,7.972,7.98,8.088,7.684,8.204,8.212,8.148
8.16,8.624,8.032,7.948,8.224,8.024,7.688,8.128,8.008,8.224
8.148,8.56,8.1,7.972,7.676,7.992,7.696,7.972,8.152,8.272
8.076,8.504,8.096,8.004,7.268,8.004,7.708,8.012,8.096,8.268
7.984,8.48,8,7.988,7.908,8.076,7.7,8.168,8.228,8.276
8.016,8.38,7.984,7.96,8.688,8.032,7.716,8.112,8.344,8.232
8.044,8.296,8.052,7.96,9.048,7.988,7.688,7.96,8.476,8.204
7.984,8.276,8.076,8.012,9.492,8.008,7.684,7.98,8.42,8.188
7.936,8.268,8,8.004,10.628,8.068,7.748,8.156,8.164,8.132
7.952,8.192,7.932,7.988,11.528,8.072,7.724,8.1,8.148,8.108
8,8.136,7.944,7.968,10.832,7.988,7.684,7.996,8.432,8.092
7.94,8.148,7.972,8.02,9.7,7.984,7.7,7.984,8.472,8.076
7.868,8.148,7.884,8.012,8.952,8.044,7.716,8.128,8.612,8.06
7.912,8.1,7.8,7.996,8.772,8.06,7.708,8.148,8.284,8.036
7.992,8.076,7.86,7.988,8.06,7.996,7.684,8.036,8.2,8.008
7.972,8.088,7.908,7.992,7.36,7.96,7.708,7.976,8.42,8.036
7.904,8.104,7.856,8,7.056,8.048,7.708,8.08,8.396,7.98
7.928,8.088,7.808,7.972,7.724,8.076,7.716,8.156,8.22,7.984
7.988,8.044,7.848,7.984,7.904,7.992,7.7,8.056,8.184,8.008
7.972,8.072,7.936,8,7.564,7.956,7.692,7.964,8.416,8.016
7.9,8.1,7.844,8.044,7.416,8.028,7.672,8.068,8.268,8
7.912,8.088,7.812,8.008,8.236,8.056,7.716,8.192,7.792,7.98
7.976,8.048,7.852,8,8.488,7.976,7.704,8.108,7.688,8.012
7.98,8.036,7.884,8,7.956,7.96,7.712,7.916,7.912,8.012
7.952,8.068,7.868,8.032,7.512,8.012,7.7,8.036,7.936,7.984
7.92,8.096,7.812,7.984,8.188,8.076,7.74,8.172,7.904,7.968
7.948,8.064,7.812,7.948,8.496,8,7.716,8.128,7.796,7.968
8,8.032,7.884,7.944,8.004,7.94,7.68,7.968,7.968,8.004
7.952,8.088,7.872,8.008,7.56,7.984,7.7,8,7.964,7.988
7.872,8.1,7.856,7.972,8.1,8.044,7.712,8.164,7.876,7.96
7.936,8.044,7.812,7.956,8.524,8.008,7.7,8.128,7.82,7.848
7.968,8.044,7.888,7.968,8.108,7.964,7.72,7.96,8.008,7.768
7.94,8.08,7.904,8,7.656,7.956,7.696,7.98,7.908,7.856
7.88,8.096,7.86,7.976,8,8.04,7.74,8.148,7.716,8.14
7.908,8.08,7.808,7.94,8.52,8.044,7.692,8.108,7.592,8.68
7.972,8.02,7.896,7.924,8.232,7.968,7.696,7.976,7.636,9.476
7.956,8.064,7.928,7.956,7.736,7.948,7.708,7.952,7.804,10.108
7.868,8.112,7.848,7.964,7.88,8.032,7.732,8.116,7.836,10.736
7.892,8.072,7.76,7.952,8.504,8.048,7.752,8.14,7.756,11.136
7.996,8.036,7.756,7.928,8.404,7.98,7.76,8.02,7.748,11.188
7.952,8.064,7.844,7.948,7.9,7.96,7.796,7.9,7.744,10.912
7.88,8.124,8.024,7.952,7.776,8.012,7.916,8.04,7.756,9.868
7.868,8.088,8.38,7.932,8.5,8.056,7.944,8.152,7.748,8.584
7.936,8.044,8.968,7.904,8.56,7.98,7.876,8.036,7.784,7.828
7.96,8.064,9.704,7.936,8.02,7.952,7.864,7.928,7.924,7.612
7.872,8.092,10.504,7.968,7.712,8.004,7.872,8,7.764,7.508
7.848,8.08,10.976,7.948,8.444,8.076,7.86,8.128,8.04,7.616
7.928,8.04,10.184,7.916,8.708,7.984,7.888,8.056,7.98,7.768
7.916,8.04,9.34,7.884,8.2,7.948,7.892,7.92,7.512,7.896
7.864,8.068,8.8,7.976,7.768,7.988,7.888,7.996,7.464,7.988
7.84,8.072,8.368,7.952,8.468,8.048,7.852,8.124,7.608,8.04
7.896,8.032,8.06,7.916,8.8,7.98,7.796,8.04,7.628,8
7.936,8.024,7.808,7.896,8.328,7.936,7.74,7.904,7.736,7.996
7.876,8.076,7.6,7.94,7.86,7.968,7.724,7.94,7.736,8.008
7.828,8.08,7.58,7.908,8.412,8.012,7.748,8.12,7.916,7.972
7.892,8.024,7.72,7.896,8.86,7.984,7.776,8.052,7.768,8.004
7.92,8.004,7.908,7.868,8.504,7.952,7.772,7.904,7.696,8.02
7.888,8.044,8.008,7.932,8.036,7.952,7.752,7.924,7.776,8.008
7.84,8.064,8.028,7.892,8.388,8.028,7.736,8.096,7.716,7.996
7.872,8.028,7.972,7.896,8.948,8.016,7.72,8.072,7.692,7.996
7.932,7.992,8.052,7.896,8.724,7.96,7.656,7.932,7.724,8.02
7.896,8.032,8.056,7.924,8.212,7.936,7.664,7.912,7.868,8.008
7.82,8.072,8.016,7.944,8.352,8.012,7.656,8.044,7.86,8.012
7.844,8.028,7.972,7.916,9.028,8.036,7.676,8.088,7.692,8.008
7.916,8,8.012,7.892,8.972,7.936,7.656,7.988,7.712,8.044
7.908,8.032,8.08,7.908,8.468,7.928,7.652,7.912,7.88,8.024
7.84,8.048,8.024,7.944,8.42,7.988,7.64,8.012,7.812,8.04
7.828,8.016,7.984,7.916,9.16,8.064,7.676,8.1,7.752,8.02
7.896,8,8.044,7.884,9.268,7.968,7.64,7.992,7.648,8.02
7.872,8.004,8.08,7.892,8.764,7.932,7.64,7.892,7.836,8.068
7.852,8.044,8.08,7.94,8.5,7.964,7.632,8.012,7.9,8.06
7.828,8.036,8.02,7.932,9.252,8.048,7.684,8.108,7.808,8.036
7.904,7.98,8.016,7.888,9.524,7.952,7.688,8.024,7.7,8.076
7.888,8,8.08,7.892,9.044,7.936,7.672,7.876,7.832,8.084
7.836,8.024,8.084,7.948,8.656,8,7.668,7.932,7.888,8.084
7.816,8.04,8.036,7.904,9.336,8.024,7.676,8.112,7.752,8.064
7.848,7.98,8.04,7.892,9.704,7.96,7.692,8.06,7.752,8.092
7.88,7.984,8.08,7.884,9.216,7.932,7.664,7.872,7.852,8.104
7.848,8.04,8.096,7.912,8.72,7.96,7.664,7.944,7.996,8.116
7.768,8.072,8.1,7.92,9.188,8.016,7.704,8.096,7.996,8.144
7.848,7.988,8.076,7.908,9.548,7.992,7.68,8.052,7.604,8.136
7.916,7.976,8.14,7.896,9.088,7.932,7.688,7.884,7.608,8.176
7.92,8.028,8.176,7.928,8.496,7.94,7.696,7.912,7.808,8.152
7.848,8.068,8.124,7.916,8.74,8.004,7.676,8.084,7.76,8.176
7.888,8.04,8.092,7.904,9.148,8.036,7.684,8.076,7.716,8.18
7.984,7.992,8.192,7.896,8.792,7.928,7.692,7.932,7.808,8.236
7.976,8.016,8.212,7.928,8.136,7.936,7.68,7.924,7.936,8.232
7.928,8.048,8.18,7.916,8.188,7.996,7.684,8.072,7.94,8.24
8,8.012,8.164,7.9,8.74,8.036,7.64,8.084,7.9,8.256
8.12,7.976,8.224,7.892,8.568,7.936,7.548,7.972,7.996,8.292
8.08,8.004,8.284,7.924,7.928,7.912,7.452,7.892,8.148,8.332
7.976,8.028,8.268,7.944,7.756,8.008,7.528,8.008,8.072,8.316
7.98,8.02,8.228,7.912,8.428,8.028,7.892,8.092,7.852,8.356
8.016,7.984,8.308,7.888,8.488,7.936,8.66,7.996,7.924,8.42
8.004,8.012,8.392,7.908,7.82,7.932,9.92,7.884,8.12,8.468
7.932,8.044,8.352,7.944,7.532,7.984,11.36,7.988,8.084,8.492
7.94,8.032,8.34,7.932,8.2,8.008,12.624,8.112,7.964,8.5
7.952,7.98,8.42,7.904,8.464,7.94,13.192,8.048,7.968,8.552
7.936,7.972,8.484,7.884,7.86,7.904,12.112,7.888,8.144,8.584
7.836,8.024,8.552,7.948,7.456,7.988,10.02,7.964,8.208,8.596
7.772,8.044,8.512,7.928,8.06,8.02,8.364,8.104,8.004,8.624
7.844,7.988,8.568,7.92,8.448,7.964,7.712,8.056,7.796,8.66
7.84,7.956,8.692,7.916,7.948,7.948,7.632,7.884,7.96,8.684
7.808,8.016,8.728,7.964,7.452,7.964,7.624,7.96,8.048,8.708
7.744,8.04,8.764,7.924,7.92,8.028,7.672,8.108,7.912,8.676
7.812,8.012,8.784,7.884,8.388,7.996,7.724,8.068,7.72,8.64
7.864,7.98,8.9,7.912,8,7.944,7.84,7.928,7.792,8.628
7.816,8.012,8.98,7.944,7.488,7.944,7.936,7.956,7.888,8.6
7.732,8.036,8.964,7.94,7.812,8.032,7.956,8.164,7.828,8.516
7.788,7.98,8.992,7.9,8.352,8.044,7.904,8.188,7.716,8.476
7.852,7.984,9.112,7.88,8.124,7.94,7.856,8.048,7.684,8.432
7.828,8.02,9.168,7.924,7.552,7.932,7.812,8.036,7.86,8.408
7.748,8.044,9.184,7.956,7.664,8.004,7.848,8.196,7.836,8.324
7.732,8.008,9.124,7.932,8.308,8.024,7.868,8.252,7.704,8.276
7.74,7.952,9.16,7.912,8.232,7.916,7.812,8.128,7.78,8.236
7.808,8,9.192,7.924,7.648,7.924,7.84,8.052,7.816,8.184
8.088,8.048,9.136,7.96,7.548,7.988,7.848,8.144,7.888,8.132
8.6,8.032,9.004,7.904,8.216,8.052,7.856,8.248,7.664,8.068
9.288,7.984,8.972,7.916,8.344,7.972,7.848,8.128,7.744,8.08
9.992,7.976,8.932,7.912,7.736,7.92,7.844,8.008,8.024,8.092
10.632,8.044,8.84,7.964,7.472,8,7.84,8.088,7.992,8.032
11.064,8.028,8.656,7.952,8.136,8.032,7.856,8.196,7.904,8.02
10.784,7.972,8.588,7.888,8.408,7.944,7.896,8.14,7.524,8.016
9.58,7.98,8.54,7.904,7.84,7.916,7.852,7.964,7.7,8.012
8.408,8.008,8.452,7.94,7.432,8,7.856,8.016,7.832,8.004
7.792,8.048,8.32,7.924,8.092,8.016,7.876,8.16,7.644,7.972
7.668,7.988,8.256,7.908,8.448,7.992,7.876,8.048,7.488,8.008
7.732,7.988,8.26,7.928,7.916,7.924,7.876,7.868,7.772,8.004
7.728,8.008,8.22,7.932,7.464,7.964,7.872,7.86,8.196,7.996
7.76,8.04,8.132,7.92,7.96,8.032,7.912,8.044,8.544,7.956
7.872,7.98,8.084,7.912,8.444,8.016,7.96,8.016,8.86,8
7.948,7.972,8.06,7.912,8.032,7.976,7.936,7.828,9.596,8
7.908,8.02,8.104,7.956,7.532,8.004,7.928,7.836,10.428,7.964
7.852,8.032,8.028,7.944,7.852,8.088,7.936,8.012,11.132,7.972
7.9,7.972,7.948,7.924,8.416,8.1,7.972,8.008,10.836,7.976
7.972,7.976,7.984,7.908,8.164,8.024,7.976,7.892,9.472,8.012
7.9,8.02,8.072,7.968,7.576,8.02,7.964,7.836,8.612,8.004
7.848,8.076,7.988,7.94,7.652,8.1,8.008,7.98,8.26,7.98
7.896,8.06,7.932,7.916,8.304,8.148,8.016,8.032,8.312,7.98
7.956,8.04,8.008,7.916,8.256,8.084,8.02,7.912,8.384,7.98
7.972,8.108,8.028,7.924,7.624,8.08,8.028,7.852,8.32,7.988
7.892,8.12,7.988,7.972,7.528,8.152,8.02,7.976,8.328,7.968
7.928,8.108,7.936,7.936,8.2,8.224,8.044,8.048,7.736,7.988
7.984,8.064,7.98,7.932,8.356,8.116,8.068,7.96,7.568,7.996
8,8.1,8.02,7.968,7.704,8.08,8.08,7.836,7.74,8.02
7.932,8.176,8.036,7.968,7.464,8.12,8.128,7.968,7.788,8.012
7.94,8.188,7.916,7.952,8.112,8.152,8.132,8.048,7.844,7.996
8.02,8.12,7.956,7.948,8.404,8.036,8.148,7.88,7.772,7.98
8.04,8.088,7.992,7.948,7.796,7.992,8.144,7.58,7.972,8.024
8,8.132,8.02,7.992,7.408,8.036,8.148,7.66,8.016,7.996
7.996,8.1,7.952,7.944,8.012,8.044,8.208,8.028,7.776,7.984
8.052,8.048,7.964,7.924,8.42,7.98,8.212,8.276,7.632,7.988
8.068,8.008,8,7.916,7.88,7.924,8.244,8.54,7.82,8.012
8.052,8.064,7.992,7.992,7.408,7.908,8.26,9.196,8.016,7.98
8.028,8.104,7.964,7.992,7.884,7.968,8.316,9.952,7.932,7.96
8.084,8.016,7.916,8.008,8.392,7.952,8.372,10.62,7.736,7.98
8.136,7.964,7.968,7.98,7.984,7.892,8.436,10.956,7.888,7.976
8.124,8.008,8.012,8.012,7.48,7.896,8.444,10.508,7.992,7.98
8.064,8,7.968,8.004,7.752,7.98,8.508,9.616,8.256,7.972
8.14,7.968,7.96,7.996,8.312,8,8.58,8.848,8.016,7.988
8.216,7.904,7.996,8.008,8.096,7.892,8.628,8.376,7.712,8.028
8.216,7.972,8.044,8.084,7.54,7.872,8.672,8.128,7.848,8.032
8.14,7.984,7.98,8.12,7.62,7.924,8.776,8.1,8.02,8.012
8.22,7.968,7.92,8.104,8.252,7.988,8.856,8.108,8.068,8.024
8.316,7.916,7.984,8.148,8.212,7.884,8.884,8.088,8.008,8.064
8.316,7.964,8.012,8.176,7.6,7.888,8.956,8.024,7.856,8.056
8.268,7.996,8,8.224,7.476,7.984,9.016,8.156,8.004,8.056
8.312,7.98,7.952,8.116,8.152,8.04,9.084,8.22,7.996,8.08
8.412,7.932,7.992,8.06,8.328,7.924,9.148,8.104,7.74,8.148
8.46,7.904,8.036,8.032,7.72,7.932,9.176,7.96,7.784,8.188
8.412,7.848,7.984,8.088,7.408,7.948,9.2,8.056,7.908,8.208
8.472,7.836,7.94,8.036,8.088,8.008,9.236,8.16,7.844,8.188
8.596,7.92,7.964,8,8.372,8.004,9.192,8.08,7.844,8.172
8.632,8.156,8.012,7.992,7.788,8.08,9.108,7.944,8.008,8.128
8.624,8.604,7.976,8.068,7.38,8.58,9.052,8.012,8.076,8.092
8.668,9.156,7.948,8.032,7.976,9.412,8.992,8.196,8,8.072
8.792,9.716,7.952,7.968,8.368,9.616,8.868,8.112,7.864,8.06
8.836,10.196,8.016,7.96,7.892,9.54,8.748,7.952,7.98,8.044
8.86,10.188,8.004,7.984,7.404,9.056,8.616,8.012,8.088,8.008
8.856,9.616,7.972,7.94,7.876,8.58,8.524,8.196,8.088,7.976
8.948,9.024,7.948,7.936,8.348,8.248,8.42,8.14,7.988,7.948
9.032,8.504,7.956,7.9,7.996,8.06,8.28,7.988,8.092,7.948
9.028,8.076,8.024,7.936,7.46,7.936,8.192,8.016,8.252,7.928
8.948,7.824,7.96,7.948,7.732,7.96,8.164,8.176,8.364,7.924
9.012,7.836,7.916,7.932,8.304,7.928,8.096,8.176,8.152,7.944
9.092,7.916,7.964,7.92,8.116,7.84,8.004,8.04,8.204,7.932
9.032,8.016,8.024,7.944,7.54,7.908,7.968,8.024,8.28,7.92
8.884,8.1,7.972,7.972,7.596,8.044,7.948,8.172,8.464,7.936
8.828,8.052,7.896,7.928,8.236,8.084,7.944,8.228,8.244,7.904
8.788,8.04,7.96,7.916,8.2,7.996,7.864,8.124,7.964,7.892
8.672,8.076,7.992,7.936,7.604,7.988,7.86,8.02,8.212,7.916
8.456,8.104,7.94,7.972,7.456,8.072,7.82,8.148,8.308,7.936
8.38,8.06,7.9,7.904,8.16,8.092,7.828,8.244,8.336,7.908
8.368,8.024,7.936,7.828,8.328,7.996,7.796,8.148,8.356,7.9
8.28,8.04,8.008,7.844,7.708,7.984,7.784,8.028,8.464,7.948
8.136,8.092,7.968,7.94,7.4,8.052,7.796,8.136,8.548,7.9
8.088,8.084,7.912,8.068,8.068,8.1,7.792,8.272,8.484,7.86
8.076,8.044,7.932,8.432,8.368,8.036,7.78,8.212,8.3,7.812
8.04,8.044,7.988,8.932,7.8,8.004,7.78,8.06,8.448,7.688
7.964,8.092,7.964,9.54,7.372,8.072,7.788,8.136,8.52,7.684
7.92,8.084,7.912,10.252,7.964,8.12,7.78,8.332,8.436,7.924
7.936,8.044,7.908,10.688,8.376,8.088,7.764,8.268,8.332,8.34
7.956,8.04,7.96,10.224,7.924,8.024,7.76,8.104,8.368,9.108
7.872,8.076,7.944,9.3,7.408,8.076,7.74,8.18,8.408,9.796
7.84,8.14,7.908,8.6,7.856,8.128,7.768,8.352,8.252,10.416
7.884,8.068,7.904,8.092,8.352,8.136,7.796,8.34,8.104,10.96
7.952,8.06,7.972,7.712,7.988,8.048,7.772,8.2,8.372,11.092
7.884,8.12,7.98,7.5,7.436,8.08,7.76,8.228,8.616,11.068
7.836,8.128,7.936,7.364,7.708,8.18,7.784,8.428,8.52,10.344
7.852,8.076,7.9,7.356,8.288,8.188,7.808,8.416,8.084,9.02
7.9,8.048,7.92,7.38,8.112,8.088,7.764,8.304,7.792,8.092
7.872,8.128,7.976,7.388,7.556,8.112,7.788,8.308,7.864,7.756
7.82,8.172,7.932,7.492,7.588,8.18,7.816,8.464,7.856,7.62
7.868,8.132,7.876,7.572,8.224,8.196,7.784,8.528,7.74,7.616
7.924,8.076,7.932,7.668,8.232,8.124,7.764,8.472,7.768,7.7
7.884,8.136,7.992,7.764,7.676,8.112,7.776,8.404,7.976,7.82
7.796,8.192,7.932,7.872,7.484,8.216,7.804,8.528,7.952,7.88
7.844,8.184,7.884,7.94,8.14,8.228,7.784,8.64,7.824,7.956
7.912,8.148,7.92,7.996,8.344,8.164,7.788,8.616,7.792,7.984
7.9,8.152,7.96,8.06,7.804,8.128,7.816,8.516,7.88,7.972
7.852,8.216,7.948,8.104,7.468,8.228,7.768,8.668,7.916,7.944
7.848,8.236,7.9,8.072,8.164,8.26,7.8,8.824,7.84,7.928
7.904,8.188,7.92,8.068,8.476,8.232,7.792,8.784,7.812,7.928
7.9,8.196,7.952,8.1,7.952,8.192,7.796,8.652,7.996,7.936
7.844,8.26,7.968,8.192,7.488,8.268,7.768,8.748,8.04,7.932
7.844,8.276,7.912,8.14,8.024,8.292,7.796,8.924,7.92,7.92
7.904,8.232,7.912,8.144,8.48,8.292,7.808,8.92,7.792,7.936
7.912,8.216,7.98,8.12,8.076,8.24,7.76,8.772,7.908,7.956
7.864,8.312,8.012,8.2,7.568,8.308,7.756,8.852,7.984,7.948
7.844,8.336,7.964,8.184,7.984,8.364,7.8,9.032,7.9,7.956
7.904,8.308,7.944,8.176,8.44,8.392,7.768,8.988,7.828,7.944
7.928,8.308,8.048,8.196,8.148,8.34,7.76,8.868,7.908,7.948
7.888,8.376,8.096,8.192,7.636,8.384,7.756,8.832,8.076,7.956
7.816,8.444,8.044,8.184,7.832,8.472,7.78,8.94,8.052,7.96
7.884,8.428,8.016,8.196,8.404,8.54,7.752,8.864,7.716,7.972
7.944,8.424,8.08,8.208,8.22,8.468,7.744,8.7,7.664,7.976
7.88,8.484,8.156,8.236,7.732,8.516,7.764,8.58,7.856,8.004
7.812,8.556,8.156,8.272,7.744,8.608,7.764,8.64,8.16,7.98
7.864,8.58,8.092,8.236,8.312,8.684,7.776,8.592,8.216,7.968
7.92,8.548,8.128,8.228,8.292,8.584,7.772,8.424,7.876,7.992
7.9,8.62,8.16,8.284,7.7,8.596,7.716,8.236,7.744,7.996
7.816,8.688,8.14,8.308,7.472,8.708,7.728,8.308,7.672,8.02
7.844,8.716,8.076,8.312,8.12,8.748,7.728,8.344,7.616,7.996
7.9,8.704,8.12,8.292,8.296,8.692,7.724,8.188,7.672,8.04
7.9,8.76,8.152,8.328,7.764,8.672,7.728,8.016,7.908,8.056
7.804,8.832,8.096,8.388,7.448,8.744,7.744,8.096,7.892,8.048
7.82,8.884,8.04,8.332,8.06,8.8,7.764,8.212,7.848,8.056
7.884,8.848,8.044,8.332,8.364,8.728,7.748,8.104,7.844,8.072
7.884,8.892,8.088,8.36,7.872,8.632,7.732,7.924,7.96,8.08
7.82,8.968,8.012,8.408,7.436,8.704,7.736,7.984,7.932,8.112
7.808,9.008,7.94,8.408,7.944,8.712,7.732,8.148,7.904,8.104
7.868,8.984,7.908,8.42,8.356,8.644,7.724,8.068,7.82,8.124
7.888,8.96,7.936,8.46,7.928,8.516,7.736,7.916,7.9,8.16
7.836,9.012,7.94,8.504,7.356,8.5,7.752,7.948,7.972,8.14
7.788,9.048,7.896,8.484,7.732,8.48,7.776,8.108,7.952,8.16
7.832,8.988,7.888,8.508,8.192,8.408,7.768,8.052,7.748,8.164
7.872,8.928,7.932,8.512,8.004,8.264,7.736,7.92,7.924,8.184
7.848,8.916,7.952,8.56,7.764,8.252,7.74,7.932,8.076,8.248
7.804,8.908,7.912,8.616,8.776,8.288,7.756,8.088,7.964,8.264
7.816,8.812,7.844,8.656,10.208,8.256,7.756,8.08,7.816,8.284
7.896,8.672,7.892,8.696,10.872,8.12,7.736,7.948,7.868,8.34
7.86,8.64,7.912,8.712,10.788,8.072,7.744,7.892,7.956,8.372
7.764,8.628,7.904,8.772,10.504,8.124,7.772,8.048,7.992,8.372
7.796,8.508,7.848,8.796,10.444,8.112,7.768,8.116,8.016,8.376
7.888,8.412,7.904,8.828,9.668,8.008,7.748,7.988,8.14,8.444
7.872,8.392,7.936,8.884,8.284,7.972,7.72,7.88,8.136,8.444
7.776,8.36,7.884,8.968,7.524,8.04,7.768,8,7.792,8.52
7.796,8.268,7.864,9.028,7.912,8.064,7.776,8.104,7.636,8.536
7.896,8.192,7.884,9.064,7.94,7.956,7.756,8.032,7.664,8.584
7.908,8.16,7.928,9.136,7.288,7.904,7.752,7.88,7.912,8.608
7.864,8.196,7.924,9.2,7.128,8,7.776,7.996,7.992,8.584
7.848,8.168,7.844,9.24,7.868,8.008,7.772,8.108,7.976,8.572
7.94,8.064,7.872,9.272,8.36,7.972,7.76,8.032,7.932,8.596
7.976,8.048,7.952,9.36,8.032,7.912,7.744,7.88,8.128,8.56
7.944,8.104,7.952,9.428,7.632,7.968,7.732,7.948,8.24,8.496
7.964,8.136,7.88,9.46,8.116,8.048,7.792,8.096,8.076,8.472
7.996,8.064,7.888,9.476,8.524,8.004,7.764,8.008,7.98,8.444
8.084,8.02,7.928,9.508,8.156,7.908,7.752,7.868,8.1,8.36
8.012,8.06,7.908,9.528,7.608,7.956,7.752,7.924,8.244,8.288
7.972,8.096,7.816,9.524,8.012,8.016,7.764,8.124,8.14,8.24
7.964,8.06,7.812,9.484,8.528,7.98,7.764,8.048,8.024,8.188
8.044,8.004,8.052,9.484,8.268,7.908,7.76,7.896,8.224,8.16
7.964,8.04,8.432,9.464,7.724,7.896,7.74,7.904,8.32,8.112
7.916,8.08,8.9,9.392,7.9,8.016,7.768,8.072,8.164,8.08
7.948,8.044,9.52,9.308,8.484,8.032,7.768,8.036,8.004,8.056
8.004,8.016,10.348,9.236,8.368,7.928,7.764,7.928,8.104,8.024
7.94,8.068,11.1,9.188,7.796,7.9,7.784,7.876,8.268,8.032
7.824,8.092,10.54,9.088,7.82,8.004,7.8,8.028,8.192,7.996
7.824,8.052,9.544,8.936,8.436,8.02,7.764,8.052,7.964,7.972
7.84,8,9.036,8.828,8.492,7.952,7.788,7.972,7.952,7.972
7.828,8.048,8.636,8.752,7.94,7.916,7.788,7.836,8.056,7.94
7.74,8.092,8.128,8.7,7.8,7.996,7.796,7.996,7.976,7.92
7.772,8.064,7.72,8.584,8.388,8.064,7.784,8.08,7.912,7.944
7.828,8.028,7.556,8.476,8.64,7.96,7.784,7.964,7.94,7.928
7.84,8.028,7.656,8.432,8.12,7.908,7.808,7.844,8.124,7.952
7.752,8.072,7.828,8.376,7.748,8.008,7.824,7.936,7.912,7.94
7.748,8.092,7.936,8.288,8.38,8.044,7.848,8.084,7.868,7.916
7.808,8.028,7.992,8.22,8.728,7.976,7.836,7.992,7.868,7.916
7.836,8.024,8.128,8.196,8.304,7.916,7.848,7.836,7.956,7.944
7.772,8.064,8.1,8.18,7.812,8,7.908,7.904,7.872,7.96
7.76,8.076,8,8.116,8.38,8.064,8.012,8.072,7.696,7.936
7.78,8.036,8.008,8.088,8.78,8.024,8.028,7.992,7.556,7.932
7.724,8.044,8.068,8.084,8.448,7.94,8.008,7.82,7.736,7.94
7.784,8.064,8.08,8.088,7.908,7.952,7.992,7.856,7.928,7.908
8.008,8.092,8.048,8.06,8.308,8.032,7.98,8.06,7.832,7.916
8.552,8.052,8.004,8.036,8.848,8.02,7.972,8.008,7.74,7.92
9.192,8.024,8.08,8.04,8.628,7.948,7.992,7.868,7.856,7.94
9.828,8.076,8.084,8.044,8.028,7.944,7.984,7.852,7.992,7.932
10.516,8.104,8.064,8.056,8.308,8.048,7.992,8.008,7.94,7.92
11.1,8.036,8.016,8.004,8.888,8.076,7.96,8.024,7.772,7.928
11.064,8.008,8.08,8.012,8.808,7.96,7.912,7.9,7.816,7.94
9.808,8.052,8.1,8.04,8.216,7.912,7.876,7.856,7.98,7.932
8.468,8.1,8.072,8.04,8.264,8.012,7.84,7.996,8.096,7.916
7.852,8.048,8.016,8.02,8.924,8.028,7.88,8.04,8.336,7.94
7.792,8.012,8.08,8.004,9.016,7.932,7.848,7.92,8.748,7.948
7.816,8.032,8.144,8.02,8.504,7.912,7.852,7.816,9.356,7.94
7.772,8.06,8.1,8.052,8.332,8.016,7.84,7.944,9.952,7.932
7.86,8.052,8.056,8.012,9.032,8.024,7.852,8.04,10.68,7.924
7.936,8.016,8.112,8.044,9.304,7.936,7.848,7.944,11.156,7.94
7.964,8.032,8.184,8.032,8.788,7.9,7.772,7.816,10.68,7.94
7.888,8.044,8.144,8.056,8.424,7.992,7.808,7.92,9.14,7.932
7.884,8.06,8.108,8.04,9.092,8.032,7.792,8.052,8.248,7.944
7.948,8.032,8.156,8.004,9.508,7.96,7.772,7.952,7.952,7.952
7.904,8.016,8.216,8.028,9.104,7.912,7.748,7.812,8.172,7.972
7.88,8.056,8.212,8.072,8.6,7.98,7.768,7.88,8.284,7.976
7.868,8.056,8.172,8.06,9.224,8.04,7.744,8.04,8.164,7.952
7.892,8.012,8.188,8.008,9.648,8,7.78,7.96,7.976,8
7.96,8,8.244,8.048,9.364,7.92,7.768,7.82,8.084,8.028
7.892,8.02,8.24,8.064,8.76,7.944,7.764,7.888,8.132,8.04
7.868,8.08,8.224,8.032,9.18,8.024,7.768,8.032,8.112,8.076
7.932,8.008,8.236,8.02,9.672,8.012,7.792,7.988,7.932,8.104
7.972,7.988,8.304,8.028,9.444,7.916,7.764,7.84,7.832,8.124
7.932,8.02,8.34,8.044,8.708,7.912,7.748,7.856,7.92,8.152
7.892,8.068,8.324,8.036,8.884,8.008,7.776,8.016,7.856,8.164
7.972,8.012,8.3,8.016,9.36,8.024,7.784,8.016,7.824,8.144
8.048,7.976,8.404,8.024,9.168,7.916,7.76,7.888,8.008,8.116
7.996,8.012,8.444,8.048,8.44,7.92,7.764,7.82,8.116,8.108
7.928,8.036,8.436,8.036,8.332,8.012,7.788,7.98,7.944,8.036
7.98,8.048,8.436,7.988,8.888,8.032,7.804,8.04,7.828,7.984
8.04,7.992,8.532,7.992,8.88,7.936,7.76,7.944,7.848,7.988
8.064,8.02,8.596,8.016,8.156,7.892,7.756,7.824,8.06,7.964
7.98,8.02,8.628,8.012,7.884,8.004,7.788,7.92,8.068,7.908
8.012,8.016,8.62,8.012,8.472,8.02,7.792,8.044,7.948,7.9
8.092,7.996,8.704,8.016,8.648,7.912,7.78,7.952,7.952,7.888
8.112,8.004,8.804,8.008,8.02,7.9,7.828,7.796,8.104,7.916
8.028,8.036,8.836,8.008,7.62,7.968,7.792,7.916,8.168,7.884
8.08,8.04,8.852,7.988,8.204,8.012,7.78,8.02,8.012,7.864
8.14,7.984,8.888,7.988,8.52,7.948,7.648,7.956,7.848,7.852
8.2,7.984,9.016,7.976,8.02,7.904,7.612,7.828,7.996,7.872
8.124,8.052,9.052,8.016,7.508,7.948,7.668,7.92,7.968,7.868
8.128,8.072,9.06,7.976,8.036,8.012,8.024,8.056,7.96,7.876
8.204,8.008,9.092,7.972,8.432,7.972,8.856,7.984,7.912,7.84
8.284,7.976,9.196,7.996,8.064,7.896,10.128,7.828,8.036,7.864
8.264,8.032,9.2,7.996,7.492,7.896,11.4,7.872,8.124,7.856
8.192,8.056,9.152,7.988,7.872,7.992,12.688,8.048,8.044,7.832
8.284,8.02,9.14,7.948,8.356,7.992,13.304,8.024,8.04,7.832
8.4,7.956,9.144,7.96,8.12,7.892,12.232,7.892,8.12,7.84
8.368,8.008,9.136,7.996,7.536,7.912,10.36,7.924,8.16,7.868
8.348,8.028,9.008,7.98,7.76,8,8.564,8.124,8.148,7.808
8.456,8.024,8.896,7.952,8.292,8,7.832,8.128,8.072,7.688
8.56,8,8.856,7.988,8.24,7.896,7.796,8.024,8.036,7.596
8.564,7.996,8.812,7.976,7.604,7.888,7.748,7.984,8.248,7.696
8.536,8.048,8.696,7.984,7.612,8,7.824,8.112,8.352,7.98
8.652,8.02,8.532,7.96,8.256,8.028,8.004,8.18,8.292,8.516
8.768,7.968,8.492,7.968,8.324,7.912,8.104,8.1,8.124,9.304
8.816,8.016,8.472,7.964,7.752,7.888,8.072,8.02,8.152,9.952
8.772,8.044,8.34,7.98,7.528,7.98,8.044,8.088,8.1,10.56
8.836,8.024,8.24,7.94,8.184,8.028,8.04,8.18,8.084,10.988
8.952,7.984,8.224,7.96,8.4,7.936,7.98,8.052,8.148,11.12
8.972,7.984,8.228,7.964,7.88,7.912,7.96,7.892,8.396,10.96
8.98,8.04,8.168,7.992,7.484,7.96,7.964,8.02,8.492,9.872
8.968,8.056,8.088,7.964,8.08,7.988,7.96,8.16,8.248,8.536
9.052,8.008,8.072,7.944,8.412,7.948,7.952,8.02,8.18,7.852
9.052,7.98,8.104,7.948,7.984,7.888,7.936,7.836,8.38,7.672
8.944,8.016,8.072,8.008,7.46,7.952,7.948,7.884,8.408,7.604
8.872,8.028,8.036,7.976,8.008,8.02,7.944,8.02,8.344,7.652
8.832,8.008,7.992,7.952,8.42,7.98,7.948,7.912,8.416,7.724
8.74,7.992,8.048,7.968,8.092,7.924,7.968,7.776,8.572,7.784
8.616,8.02,8.052,7.996,7.512,7.944,7.984,7.816,8.688,7.904
8.436,8.04,8.02,7.976,7.888,8.008,7.98,7.968,8.5,7.908
8.396,8.004,7.976,7.952,8.368,8.012,7.976,7.936,8.44,7.868
8.368,7.98,8.048,7.952,8.164,7.916,7.984,7.788,8.54,7.892
8.252,8.016,8.04,7.988,7.564,7.9,7.968,7.788,8.652,7.848
8.136,8.06,8,7.996,7.808,7.992,7.988,7.936,8.584,7.844
8.088,8,7.932,7.936,8.324,8.016,8.02,7.936,8.484,7.856
8.112,7.948,8.012,7.996,8.252,7.932,8.004,7.82,8.452,7.836
8.036,8.008,8.056,7.988,7.656,7.896,8,7.784,8.552,7.832
7.932,8.068,8.008,7.988,7.636,8.004,8.04,7.924,8.464,7.832
7.936,7.996,7.952,7.988,8.22,8.024,8.036,7.94,8.308,7.824
7.98,7.956,8.004,7.98,8.324,7.892,8.028,7.844,8.292,7.844
7.94,8.008,8.044,7.98,7.776,7.92,8.012,7.732,8.412,7.856
7.856,8.044,8.02,8.012,7.5,7.964,8.04,7.848,8.24,7.832
7.86,8.024,7.972,7.964,8.16,8.032,8.048,7.992,8.096,7.86
7.932,7.972,8.004,7.952,8.38,7.944,8.048,7.896,8.104,7.86
7.908,7.992,8.068,7.988,7.876,7.908,8.052,7.756,8.272,7.856
7.84,8.016,8.028,8,7.452,7.972,8.1,7.736,8.156,7.856
7.844,8.044,7.988,7.964,8.08,8.032,8.108,7.76,8.056,7.848
7.908,7.972,7.98,7.944,8.388,7.948,8.116,7.676,7.892,7.896
7.912,7.964,8.036,7.976,7.948,7.904,8.132,7.744,7.984,7.9
7.86,8.044,8.012,8.024,7.436,7.944,8.148,8.108,8.04,7.9
7.828,8.088,7.964,7.996,7.956,8.036,8.16,8.748,7.956,7.884
7.872,8.048,7.968,7.94,8.36,7.972,8.156,9.276,7.908,7.888
7.928,8.088,8.008,7.968,8.036,7.884,8.212,9.648,7.944,7.88
7.844,8.112,8.032,8.016,7.46,7.928,8.2,10.348,8.052,7.904
7.816,8.12,7.992,7.984,7.84,8.02,8.232,10.852,8.096,7.88
7.872,8.06,7.976,7.956,8.324,8.012,8.256,10.28,8.056,7.928
7.932,8.06,8.016,7.968,8.092,7.92,8.232,9.068,8.04,7.936
7.868,8.152,8.012,8.024,7.512,7.94,8.244,8.384,7.936,7.94
7.8,8.212,8,8.02,7.696,8.004,8.284,8.24,7.804,7.944
7.856,8.136,7.94,7.976,8.26,8.036,8.36,8.04,7.76,7.96
7.936,8.064,8.008,7.976,8.164,7.928,8.36,7.78,7.86,7.964
7.9,8.076,8.06,8.004,7.624,7.932,8.38,7.748,8.008,7.952
7.832,8.092,8,7.988,7.564,8.036,8.42,8,7.98,7.992
7.836,8.06,7.936,7.988,8.172,8.072,8.484,8.108,7.84,7.996
7.936,7.988,7.98,8.008,8.252,7.984,8.524,8.036,7.872,8.044
7.912,8.028,8.028,7.988,7.696,7.948,8.58,7.884,8.024,8.064
7.836,8.036,8,8.044,7.456,8.068,8.612,7.98,8.052,8.08
7.864,8.008,7.94,7.98,8.12,8.112,8.704,8.1,7.896,8.088
7.908,7.96,7.968,7.964,8.34,8.064,8.764,8.016,7.844,8.1
7.904,7.976,8.02,7.976,7.812,8.02,8.836,7.86,7.976,8.132
7.852,7.98,8.004,8.028,7.412,8.128,8.896,7.98,8.008,8.168
7.84,7.956,7.94,7.98,8.016,8.164,8.94,8.104,7.92,8.192
7.864,7.92,7.956,7.956,8.364,8.108,9.044,8.008,7.856,8.228
7.904,7.932,7.992,7.988,7.908,8.08,9.104,7.86,7.984,8.264
7.884,7.96,7.988,7.992,7.38,8.156,9.14,7.952,8.012,8.28
7.828,7.984,7.924,8,7.916,8.184,9.216,8.116,7.956,8.304
7.856,7.948,7.924,7.94,8.332,8.144,9.292,8.04,7.884,8.36
7.908,7.904,7.972,7.98,7.996,8.036,9.32,7.92,7.964,8.324
7.86,7.956,8.004,8.004,7.432,8.048,9.332,7.936,8.06,8.404
7.816,7.988,7.964,7.952,7.792,8.1,9.356,8.108,8.028,8.384
7.836,7.932,7.924,7.944,8.276,8.068,9.312,8.104,7.936,8.456
7.908,7.856,7.996,7.984,8.056,7.94,9.208,7.952,7.936,8.444
7.876,7.816,7.988,8.004,7.456,7.916,9.116,7.908,8.052,8.448
7.808,7.84,7.96,8.012,7.664,8.008,9.048,8.104,7.96,8.408
7.828,7.908,7.92,7.972,8.2,8.04,8.944,8.124,7.836,8.412
7.916,8.088,7.968,8.004,8.144,7.92,8.808,7.984,7.872,8.376
7.88,8.512,7.98,8.004,7.592,7.872,8.676,7.948,8.036,8.332
7.808,9.068,7.96,8.008,7.536,7.936,8.58,8.088,7.996,8.284
7.816,9.672,7.924,7.984,8.152,7.992,8.484,8.132,7.932,8.228
7.92,10.18,7.928,7.98,8.232,7.9,8.368,8.044,7.916,8.172
7.868,10.172,7.996,7.992,7.688,7.868,8.3,7.944,8.048,8.172
7.812,9.636,7.976,8.02,7.436,7.948,8.204,8.084,8.008,8.096
7.792,9.052,7.912,8.032,8.076,7.988,8.176,8.192,7.94,8.036
7.892,8.556,7.948,8.004,8.308,7.92,8.1,8.092,7.956,8.012
7.848,8.072,8,8.004,7.832,7.868,8.024,7.96,8.168,7.972
7.8,7.828,7.964,8.024,7.4,7.944,8.012,8.088,8.152,7.896
7.8,7.84,7.908,7.992,8.012,8.004,8.012,8.228,7.88,7.844
7.868,7.896,7.928,7.988,8.336,7.924,7.948,8.128,7.816,7.86
7.868,7.96,7.956,8,7.932,7.904,7.94,8.02,7.988,7.864
7.828,8.048,7.936,8.028,7.392,7.944,7.936,8.104,8.016,7.844
7.784,8.104,7.924,7.992,7.904,8.016,7.924,8.284,7.956,7.816
7.82,8.028,7.928,7.984,8.304,7.98,7.924,8.224,7.856,7.816
7.876,8.004,7.964,7.98,7.992,7.868,7.872,8.088,7.988,7.828
7.804,8.056,7.972,8.028,7.464,7.94,7.884,8.124,8.192,7.796
7.772,8.068,7.936,8.016,7.792,8.092,7.908,8.308,8.144,7.776
7.812,8.04,7.928,7.956,8.284,8.5,7.912,8.28,7.96,7.804
7.892,7.988,7.968,8.024,8.08,9.124,7.872,8.188,8,7.788
7.848,8.032,7.988,8.044,7.524,9.6,7.848,8.188,8.128,7.824
7.764,8.06,7.932,8.032,7.652,9.7,7.876,8.38,8.148,7.82
7.788,8.032,7.912,7.992,8.22,9.336,7.872,8.408,8.116,7.808
7.872,8.004,7.956,8.012,8.18,8.612,7.86,8.312,8.252,7.768
7.836,8.032,7.992,8.016,7.652,8.252,7.848,8.284,8.364,7.76
7.784,8.06,7.912,8.012,7.592,8.2,7.876,8.46,8.308,7.756
7.808,8.036,7.904,7.992,8.196,8.068,7.884,8.548,8.188,7.772
7.896,8.02,7.94,8,8.268,7.848,7.864,8.472,8.288,7.816
7.864,8.036,7.992,8.02,7.748,7.808,7.832,8.388,8.52,7.812
7.82,8.08,7.932,8.02,7.524,7.888,7.888,8.528,8.356,7.796
7.784,8.084,7.908,8.012,8.184,8.024,7.848,8.668,8.12,7.796
7.876,8.016,7.92,8,8.436,8.004,7.876,8.6,7.924,7.796
7.864,8.044,7.984,8.036,7.952,7.972,7.868,8.496,7.992,7.796
7.808,8.084,7.964,8.068,7.524,8.072,7.832,8.624,8.084,7.78
7.768,8.104,7.908,8.028,8.1,8.132,7.852,8.796,8.076,7.752
7.884,8.064,7.916,8.024,8.464,8.072,7.84,8.776,8.072,7.788
7.872,8.068,7.988,8.056,8.076,8.016,7.844,8.632,8.084,7.796
7.832,8.104,7.968,8.096,7.532,8.052,7.824,8.708,8.128,7.808
7.76,8.116,7.976,8.08,8.068,8.124,7.852,8.916,7.944,7.788
7.828,8.096,7.988,8.06,8.48,8.132,7.852,8.848,7.876,7.796
7.868,8.08,8.048,8.052,8.128,8.016,7.84,8.728,7.924,7.78
7.828,8.132,8.052,8.104,7.56,8.056,7.828,8.808,8.004,7.78
7.788,8.172,8.024,8.1,7.924,8.144,7.832,8.94,7.98,7.788
7.88,8.104,8.028,8.056,8.408,8.148,7.864,8.888,7.896,7.792
7.98,8.104,8.088,8.104,8.2,8.064,7.812,8.684,7.968,7.792
7.908,8.168,8.092,8.144,7.648,8.06,7.84,8.636,8.152,7.78
7.872,8.208,8.052,8.184,7.82,8.168,7.836,8.744,8.128,7.8
7.912,8.152,8.108,8.164,8.372,8.18,7.844,8.68,8.012,7.812
8.056,8.12,8.208,8.224,8.26,8.076,7.836,8.48,8.084,7.832
8.052,8.208,8.26,8.244,7.672,8.064,7.832,8.324,7.952,7.924
7.996,8.228,8.164,8.196,7.58,8.16,7.824,8.404,7.816,7.952
7.976,8.232,8.084,8.136,8.18,8.184,7.852,8.4,7.724,7.988
8.048,8.2,8.136,8.128,8.244,8.116,7.848,8.232,7.744,8.024
7.996,8.24,8.16,8.128,7.744,8.104,7.844,8.056,7.992,8.004
7.912,8.292,8.132,8.152,7.472,8.2,7.828,8.136,8.228,7.984
7.892,8.296,8.088,8.048,8.084,8.232,7.872,8.2,8.132,7.988
7.968,8.272,8.08,8.028,8.328,8.172,7.848,8.08,7.788,7.984
7.956,8.296,8.168,8.08,7.848,8.112,7.816,7.912,7.808,7.992
7.896,8.376,8.1,8.128,7.42,8.196,7.82,7.996,7.856,7.976
7.804,8.412,8.016,8.068,8,8.268,7.86,8.12,7.728,7.944
7.864,8.412,8.012,8.052,8.34,8.22,7.836,8.004,7.856,7.852
7.86,8.404,8.048,8.052,7.952,8.156,7.836,7.868,8.396,7.8
7.788,8.5,7.972,8.044,7.356,8.204,7.836,7.912,8.98,7.788
7.728,8.556,7.9,8.02,7.8,8.316,7.852,8.096,9.216,7.74
7.792,8.54,7.916,7.968,8.172,8.3,7.836,8.024,9.508,7.772
7.832,8.524,7.964,8.012,7.916,8.22,7.852,7.888,10.284,7.772
7.784,8.632,7.952,8.012,7.528,8.228,7.84,7.9,11.22,7.712
7.684,8.704,7.912,7.996,8.38,8.312,7.86,8.068,11.024,7.732
7.768,8.696,7.9,7.968,9.764,8.376,7.836,8.028,9.544,7.748
7.852,8.7,7.936,8.008,10.392,8.264,7.828,7.908,8.7,7.752
7.8,8.756,7.952,8.024,10.544,8.296,7.82,7.86,8.416,7.732
7.756,8.84,7.924,8.012,10.764,8.388,7.852,8.028,8.096,7.676
7.76,8.84,7.88,7.972,10.748,8.46,7.852,8.048,7.968,7.68
7.824,8.848,7.912,8.008,9.964,8.38,7.844,7.924,8.036,7.684
7.716,8.88,7.96,8.028,8.636,8.38,7.804,7.868,8.192,7.728
7.616,8.968,7.912,8.016,7.788,8.492,7.804,8.012,8.184,7.708
7.864,8.968,7.88,7.96,8.052,8.544,7.816,8.068,8.02,7.708
8.32,8.924,7.92,7.936,7.96,8.468,7.812,7.96,7.964,7.732
8.824,8.948,7.992,7.98,7.284,8.476,7.82,7.864,8.084,7.7
9.396,9,7.912,8.104,7.016,8.58,7.824,7.972,8.116,7.716
10.112,8.952,7.864,8.336,7.804,8.668,7.872,8.064,7.996,7.636
10.86,8.908,7.92,8.848,8.22,8.616,7.82,7.968,7.956,7.556
11.156,8.856,7.952,9.372,7.864,8.584,7.82,7.84,8.068,7.412
10.336,8.84,7.908,10.02,7.544,8.708,7.82,7.96,8.096,7.532
8.948,8.792,7.924,10.636,8.18,8.776,7.816,8.084,7.972,7.784
8.104,8.648,7.916,10.504,8.52,8.744,7.832,7.996,7.936,8.436
7.804,8.584,7.968,9.656,8.128,8.708,7.808,7.848,8.064,9.232
7.748,8.572,7.964,8.948,7.576,8.768,7.812,7.9,8.124,9.872
7.692,8.508,7.9,8.396,8.056,8.856,7.84,8.06,8.012,10.488
7.824,8.396,7.884,7.924,8.488,8.856,7.852,8.044,7.944,10.956
7.912,8.316,7.92,7.648,8.184,8.752,7.852,7.884,8.024,11.064
7.876,8.276,7.904,7.488,7.632,8.776,7.804,7.904,8.148,10.804
7.84,8.288,8.04,7.412,7.936,8.824,7.836,8.06,8.072,9.62
7.9,8.164,8.324,7.432,8.488,8.812,7.828,8,8.02,8.344
7.96,8.12,8.88,7.46,8.292,8.664,7.828,7.876,8.004,7.776
7.92,8.128,9.524,7.556,7.732,8.62,7.816,7.884,8.148,7.612
7.836,8.132,10.22,7.648,7.84,8.672,7.84,8.028,8.096,7.516
7.86,8.076,10.932,7.736,8.456,8.616,7.848,8.04,8.036,7.516
7.952,8.036,10.512,7.824,8.392,8.472,7.848,7.932,8.068,7.636
7.928,8.04,9.672,7.916,7.876,8.4,7.832,7.892,8.2,7.652
7.848,8.084,9.144,8.032,7.8,8.412,7.852,7.992,8.172,7.692
7.864,8.048,8.628,8.06,8.448,8.424,7.824,8.056,8.248,7.748
7.976,7.972,8.132,8.096,8.544,8.28,7.84,7.932,8.36,7.764
7.928,7.996,7.832,8.124,8.052,8.188,7.84,7.828,8.248,7.74
7.908,8.04,7.568,8.176,7.772,8.244,7.84,7.92,8.088,7.704
7.896,8.028,7.608,8.136,8.404,8.264,7.84,8.06,7.916,7.684
7.976,7.984,7.876,8.164,8.656,8.152,7.856,7.952,7.96,7.708
7.984,7.968,8.048,8.184,8.192,8.076,7.832,7.816,8.124,7.756
7.96,8.032,8.088,8.228,7.752,8.124,7.86,7.904,8.176,7.712
7.912,8.052,8.072,8.188,8.376,8.168,7.868,8.044,8.088,7.688
8.008,7.992,8.068,8.192,8.744,8.1,7.856,7.936,8.096,7.676
8.036,7.956,8.088,8.228,8.356,8.012,7.84,7.792,8.256,7.708
7.996,8.024,8.068,8.264,7.86,8.06,7.864,7.864,8.384,7.64
7.944,8.036,8.056,8.22,8.328,8.124,7.868,8.016,8.272,7.688
8.068,7.996,8.048,8.228,8.784,8.088,7.856,7.944,8.18,7.784
8.1,7.988,8.092,8.264,8.48,7.992,7.872,7.844,8.384,7.724
8.036,8.016,8.096,8.252,7.944,7.988,7.864,7.872,8.472,7.736
7.992,8.024,8.06,8.256,8.264,8.08,7.872,8.004,8.304,7.764
8.072,8,8.036,8.248,8.832,8.088,7.844,7.964,8.236,7.764
8.156,7.936,8.072,8.316,8.68,8.004,7.868,7.876,8.34,7.716
8.104,8.02,8.124,8.3,8.156,7.992,7.864,7.828,8.488,7.68
8.076,8.044,8.064,8.292,8.3,8.076,7.86,7.964,8.468,7.74
8.136,7.992,8.052,8.288,8.9,8.116,7.888,8.02,8.364,7.756
8.22,7.968,8.084,8.32,8.868,8.012,7.872,7.916,8.456,7.756
8.192,7.996,8.116,8.324,8.412,7.96,7.852,7.804,8.648,7.8
8.164,8.028,8.092,8.332,8.34,8.064,7.852,7.944,8.6,7.76
8.216,8.008,8.064,8.316,9.008,8.096,7.9,7.996,8.424,7.78
8.336,7.968,8.116,8.352,9.14,8.012,7.844,7.9,8.48,7.8
8.316,7.968,8.172,8.392,8.692,7.972,7.86,7.808,8.648,7.808
8.308,8.024,8.168,8.4,8.444,8.08,7.892,7.9,8.772,7.792
8.344,8.016,8.128,8.404,9.116,8.124,7.892,7.992,8.788,7.76
8.44,7.98,8.156,8.392,9.384,8.044,7.864,7.904,8.808,7.84
8.512,7.964,8.192,8.46,8.976,7.976,7.868,7.788,8.792,7.872
8.516,8.016,8.18,8.46,8.556,8.06,7.868,7.848,8.808,7.844
8.512,8.016,8.164,8.472,9.176,8.116,7.856,8,8.532,7.812
8.632,7.984,8.184,8.468,9.572,8.06,7.876,7.916,8.428,7.924
8.72,7.964,8.24,8.512,9.228,8.004,7.888,7.784,8.492,7.916
8.704,8.004,8.232,8.548,8.736,8.044,7.856,7.864,8.576,7.916
8.704,8.04,8.22,8.568,9.204,8.128,7.888,8.012,8.312,7.94
8.832,7.976,8.236,8.536,9.656,8.108,7.9,7.94,8,7.968
8.928,7.948,8.3,8.608,9.296,8.012,7.868,7.804,8.076,8.044
8.908,7.988,8.296,8.664,8.684,8.028,7.868,7.836,8.288,7.984
8.912,8.008,8.28,8.68,8.908,8.132,7.876,7.988,8.236,8.02
8.996,7.976,8.268,8.688,9.384,8.152,7.9,7.992,8.06,8.04
9.08,7.948,8.344,8.78,9.072,8.036,7.864,7.852,8.02,8.124
8.984,7.976,8.412,8.832,8.444,8.032,7.864,7.832,8.212,8.08
8.924,8.028,8.388,8.824,8.42,8.128,7.912,7.94,8.292,8.152
8.904,7.968,8.34,8.868,8.932,8.16,7.896,7.968,8.108,8.168
8.936,7.936,8.46,8.936,8.732,8.064,7.88,7.896,7.876,8.24
8.824,7.956,8.488,8.984,8.152,8.02,7.884,7.804,7.96,8.248
8.656,8.012,8.532,9.056,7.956,8.092,7.892,7.94,7.936,8.268
8.576,7.96,8.484,9.092,8.536,8.128,7.892,8.008,7.968,8.292
8.54,7.928,8.58,9.16,8.56,8.064,7.916,7.896,8.168,8.356
8.424,7.944,8.7,9.196,8.008,8.008,7.936,7.796,8.42,8.348
8.252,7.972,8.676,9.288,7.672,8.092,7.948,7.92,8.232,8.26
8.196,7.98,8.724,9.32,8.252,8.148,8.048,8.04,8,8.228
8.18,7.936,8.788,9.348,8.484,8.072,8.104,7.94,7.968,8.256
8.124,7.944,8.888,9.428,7.976,8.024,8.136,7.84,7.9,8.22
8.008,7.976,8.924,9.488,7.5,8.08,8.108,7.98,7.9,8.188
7.964,7.996,8.948,9.496,8.012,8.108,8.084,8.16,7.952,8.144
8.008,7.932,9.016,9.544,8.428,8.068,8.052,8.048,7.892,8.076
7.992,7.924,9.1,9.576,8.008,7.988,8.096,7.928,8.032,8.036
7.908,7.956,9.136,9.604,7.464,8.048,8.088,7.988,7.988,7.984
7.864,7.976,9.112,9.576,7.9,8.124,8.08,8.156,7.872,7.928
7.876,7.916,9.124,9.54,8.388,8.1,8.088,8.1,7.964,7.908
7.932,7.924,9.196,9.544,8.04,8.004,8.032,7.972,8.112,7.884
7.88,7.952,9.184,9.508,7.48,8.024,8.008,7.988,8.136,7.796
7.824,7.992,9.128,9.428,7.76,8.104,7.964,8.124,7.92,7.736
7.856,7.94,9.048,9.348,8.316,8.112,7.948,8.1,7.824,7.736
7.924,7.908,9.028,9.292,8.128,8.012,7.94,7.972,7.972,7.74
7.872,7.928,9.02,9.212,7.572,8,7.924,7.924,8.056,7.748
7.792,7.984,8.884,9.068,7.664,8.096,7.936,8.08,7.916,7.732
7.824,7.952,8.752,8.932,8.252,8.12,7.976,8.072,7.76,7.704
7.912,7.896,8.704,8.904,8.224,8.02,7.896,7.952,7.764,7.728
7.872,7.94,8.66,8.776,7.688,8,7.856,7.828,7.968,7.712
7.816,7.96,8.552,8.708,7.532,8.088,7.86,7.968,7.976,7.7
7.828,7.94,8.392,8.596,8.168,8.136,7.864,7.984,7.844,7.704
7.936,7.904,8.38,8.52,8.336,8.028,7.848,7.8,7.836,7.668
7.88,7.928,8.36,8.44,7.796,8.008,7.816,7.684,7.972,7.712
7.796,7.976,8.26,8.42,7.5,8.072,7.844,7.832,7.98,7.692
7.82,7.964,8.192,8.328,8.092,8.132,7.852,7.932,7.912,7.632
7.916,7.928,8.176,8.272,8.404,8.056,7.856,7.856,7.868,7.6
7.904,7.92,8.172,8.272,7.876,8.012,7.828,7.712,8.02,7.632
7.828,7.968,8.116,8.224,7.424,8.068,7.844,7.82,8.052,7.652
7.816,7.98,8.072,8.184,7.964,8.128,7.848,7.956,7.92,7.684
7.892,7.932,8.068,8.144,8.424,8.06,7.828,7.852,7.832,7.72
7.924,7.9,8.092,8.164,7.996,8.016,7.84,7.696,7.952,7.684
7.824,7.964,8.084,8.172,7.464,8.064,7.844,7.768,8.024,7.676
7.776,8,8.028,8.152,7.896,8.144,7.844,7.92,7.904,7.692
7.856,7.92,8.02,8.076,8.368,8.12,7.844,7.848,7.896,7.7
7.904,7.888,8.068,8.1,8.1,8.012,7.836,7.752,7.952,7.7
7.856,7.952,8.052,8.136,7.508,8.028,7.82,7.792,8.024,7.664
7.804,7.964,8.012,8.072,7.78,8.108,7.856,7.928,7.944,7.608
7.832,7.948,7.996,8.076,8.304,8.116,7.848,7.892,7.86,7.648
7.912,7.9,8.04,8.084,8.16,8.036,7.832,7.8,7.936,7.676
7.848,7.932,8.06,8.076,7.58,8.016,7.86,7.756,8.044,7.648
7.788,7.988,7.992,8.112,7.66,8.12,7.868,7.82,7.972,7.696
7.824,7.944,7.992,8.056,8.264,8.144,7.852,7.716,7.876,7.656
7.94,7.916,8.008,8.06,8.232,8.052,7.86,7.584,7.968,7.72
7.88,7.92,8.06,8.096,7.68,8,7.872,7.672,8.108,7.708
7.812,7.984,8.028,8.072,7.564,8.092,7.876,8.136,8.088,7.664
7.8,7.932,7.984,8.056,8.168,8.132,7.9,8.648,8,7.64
7.896,7.908,8.036,8.068,8.296,8.028,7.804,9.148,8.04,7.66
7.872,7.9,8.08,8.1,7.82,8.012,7.728,9.556,8.252,7.696
7.8,7.972,8.024,8.088,7.436,8.096,7.708,10.328,8.232,7.616
7.812,7.972,7.988,8.076,8.076,8.14,7.832,10.892,7.972,7.636
7.884,7.9,7.996,8.076,8.364,8.06,8.244,10.404,7.96,7.688
7.892,7.9,8.048,8.08,7.928,8.008,9.12,9.196,8.156,7.74
7.824,7.96,7.992,8.112,7.38,8.052,10.48,8.504,8.204,7.728
7.788,7.98,7.992,8.1,7.964,8.132,11.728,8.304,8.112,7.772
7.856,7.916,7.992,8.06,8.36,8.064,12.92,7.996,8.08,7.804
7.876,7.9,8.044,8.088,7.98,8.008,13.06,7.724,8.192,7.88
7.8,7.944,8.052,8.124,7.448,8.036,11.72,7.796,8.248,7.892
7.752,7.952,7.992,8.116,7.828,8.116,9.78,8.072,8.096,7.896
7.82,7.932,7.98,8.076,8.32,8.1,8.308,8.056,8.024,7.9
7.88,7.908,8.048,8.1,8.028,8.028,7.844,7.948,8.068,7.904
7.832,7.932,8.036,8.112,7.524,8.012,7.844,7.944,8.156,7.868
7.764,7.968,8,8.112,7.696,8.112,7.832,8.084,8.044,7.852
7.8,7.908,7.984,8.108,8.232,8.108,7.928,8.012,7.896,7.884
7.904,7.896,8.016,8.128,8.052,8.016,8.08,7.908,7.916,7.876
7.844,7.964,8.052,8.116,7.572,8.012,8.128,7.884,8.032,7.756
7.772,8.008,7.98,8.124,7.592,8.112,8.16,8.02,7.944,7.732
7.796,7.964,7.976,8.072,8.208,8.156,8.116,8.048,7.852,7.684
7.888,7.968,8.032,8.072,8.176,8.036,8.056,7.956,7.84,7.664
7.832,8.052,8.024,8.104,7.644,8.016,8.04,7.864,7.928,7.628
7.768,8.052,8.012,8.088,7.536,8.076,8.012,8.016,7.936,7.636
7.784,8.04,7.984,8.084,8.104,8.164,8.012,8.072,7.82,7.62
7.852,7.98,7.968,8.064,8.256,8.024,8.004,7.948,7.76,7.596
7.832,8.016,8.048,8.068,7.768,8.012,7.992,7.856,7.908,7.648
7.764,8.1,7.992,8.08,7.44,8.064,8.02,7.972,7.92,7.632
7.756,8.12,7.972,8.084,8.016,8.144,8.036,8.104,7.824,7.588
7.86,8.068,7.984,8.036,8.332,8.064,8.008,7.972,7.776,7.624
7.856,8.04,8.012,8.064,7.868,7.996,8,7.868,7.88,7.668
7.776,8.068,8.024,8.056,7.424,8.048,7.996,7.976,7.944,7.648
7.748,8.04,7.964,8.056,7.872,8.124,8,8.136,7.848,7.6
7.832,7.964,7.98,8.008,8.308,8.084,8.024,8.036,7.812,7.624
7.856,7.936,8.008,8.06,7.936,8.012,8.032,7.924,7.892,7.628
7.788,7.98,7.984,8.04,7.42,8.024,8,7.964,7.952,7.58
7.748,7.988,7.96,8.02,7.776,8.136,8.044,8.108,7.816,7.576
7.836,7.896,7.952,8.012,8.28,8.128,8.064,8.06,7.748,7.636
7.888,7.892,8.004,8.028,7.984,8.028,8.032,7.984,7.72,7.588
7.796,7.936,7.992,8.056,7.456,8.036,8.032,7.972,7.844,7.436
7.728,7.928,7.96,8.052,7.672,8.1,8.056,8.124,8.028,7.384
7.808,7.88,7.94,8.036,8.212,8.112,8.1,8.12,8.412,7.556
7.884,7.852,7.98,8.052,8.048,8.012,8.08,8.028,8.8,7.9
7.82,7.892,8,8.052,7.52,8.012,8.076,7.992,9.424,8.468
7.732,7.908,7.952,8.032,7.592,8.092,8.104,8.136,9.956,9.172
7.804,7.908,7.936,8.008,8.156,8.14,8.108,8.18,10.688,9.784
7.872,7.852,7.976,8.02,8.156,8.036,8.12,8.064,10.952,10.412
7.816,7.872,8.004,8.048,7.652,8.012,8.104,8.016,10.032,10.776
7.74,7.944,7.968,8.04,7.54,8.064,8.12,8.164,8.912,10.936
7.756,7.916,7.944,8.004,8.056,8.156,8.156,8.264,8.252,10.676
7.892,7.864,7.968,8.032,8.244,8.024,8.152,8.14,7.948,9.524
7.836,7.804,8.036,8.008,7.736,7.988,8.168,8.036,7.96,8.2
7.784,7.776,7.972,8.04,7.448,8.096,8.18,8.16,8.004,7.636
7.792,7.78,7.96,8.024,7.98,8.164,8.192,8.308,7.876,7.468
7.844,7.844,7.952,8.012,8.288,8.072,8.212,8.212,7.856,7.452
7.864,8.092,7.996,8.02,7.856,8.04,8.212,8.116,7.936,7.52
7.768,8.56,7.988,8.036,7.416,8.072,8.22,8.22,8.056,7.544
7.76,9.1,7.94,8.024,7.852,8.164,8.268,8.4,7.94,7.632
7.824,9.692,7.936,8.004,8.308,8.092,8.3,8.324,7.964,7.672
7.9,10.148,7.972,8.044,7.912,8.056,8.296,8.244,7.996,7.72
7.832,10.108,7.98,8.02,7.408,8.1,8.308,8.324,8.02,7.66
7.816,9.52,7.944,8.04,7.744,8.2,8.344,8.496,7.776,7.636
7.88,8.908,7.928,7.996,8.26,8.216,8.368,8.456,7.696,7.676
8.004,8.428,7.98,8.028,7.992,8.12,8.344,8.384,7.728,7.692
7.948,7.984,8.004,8.024,7.476,8.144,8.408,8.416,7.876,7.64
7.892,7.76,7.952,8.032,7.672,8.248,8.46,8.608,7.892,7.64
8.016,7.768,7.916,7.996,8.192,8.3,8.508,8.636,7.844,7.72
8.084,7.848,7.956,8.032,8.052,8.184,8.536,8.544,7.848,7.708
7.972,7.932,7.992,8.032,7.544,8.164,8.556,8.528,7.94,7.684
7.888,8.048,7.968,8.016,7.596,8.268,8.632,8.728,7.92,7.672
7.932,8.028,7.9,8.008,8.132,8.324,8.684,8.776,7.88,7.64
8.028,7.984,7.956,8.008,8.144,8.224,8.748,8.708,7.94,7.68
7.944,8,8.016,8.004,7.66,8.156,8.752,8.636,8.068,7.68
7.864,8.028,7.964,8.02,7.532,8.22,8.848,8.82,7.924,7.636
7.868,8.016,7.92,8.02,8.084,8.244,8.904,8.916,7.696,7.664
7.944,7.964,7.96,8.008,8.248,8.148,8.964,8.844,7.696,7.736
7.84,7.992,8.004,8.024,7.764,8.052,9.052,8.744,7.908,7.76
7.736,8.008,7.94,8.036,7.468,8.148,9.124,8.856,7.988,7.72
7.748,8.008,7.94,8.016,8.012,8.168,9.188,8.948,7.912,7.672
7.86,7.964,7.952,7.996,8.36,8.088,9.228,8.852,8.104,7.704
7.856,7.956,8.016,8.012,7.976,8.016,9.284,8.696,8.344,7.724
7.732,8.02,8,8.036,7.524,8.032,9.332,8.704,8.272,7.744
7.704,8.044,8.008,8.02,7.944,8.088,9.364,8.776,7.936,7.724
7.78,7.992,8.024,7.992,8.376,8.024,9.36,8.616,7.616,7.78
7.824,7.968,8.08,8.044,8.008,7.968,9.332,8.42,7.688,7.792
7.748,8.008,8.088,8.024,7.536,8,9.244,8.404,7.872,7.796
7.708,8.056,8.072,8.04,7.876,8.084,9.196,8.48,7.832,7.76
7.796,8,8.08,7.984,8.364,8.06,9.108,8.348,7.808,7.764
7.88,7.964,8.136,8.036,8.124,7.98,8.968,8.156,7.86,7.836
7.78,8.028,8.128,8.044,7.624,7.984,8.864,8.108,8.024,7.828
7.676,8.068,8.148,8.048,7.776,8.052,8.78,8.216,7.984,7.828
7.66,8.052,8.172,8.004,8.32,8.084,8.688,8.152,7.98,7.828
7.82,8,8.244,8.056,8.16,7.988,8.548,8.016,8.052,7.86
8.108,8.044,8.24,8.028,7.68,7.972,8.46,7.932,8.156,7.876
8.496,8.088,8.172,8.016,7.68,8.108,8.368,8.072,8.104,7.88
9.164,8.076,8.152,8.02,8.28,8.144,8.316,8.096,8.004,7.86
9.94,8.02,8.192,8.032,8.292,8.036,8.244,7.988,8.032,7.928
10.608,8.08,8.212,8.024,7.788,8.02,8.176,7.888,8.26,7.988
10.944,8.128,8.176,8.044,7.572,8.096,8.136,8.004,8.316,7.936
10.636,8.112,8.096,8.036,8.08,8.148,8.116,8.084,8.152,7.992
9.488,8.064,8.144,8.004,8.236,8.108,8.048,7.936,8.116,8.056
8.42,8.084,8.16,8.016,7.776,8.172,8.04,7.832,8.216,8.084
7.748,8.16,8.084,8.016,7.424,8.704,7.996,7.94,8.372,8.084
7.592,8.172,8.004,8.028,7.972,9.5,8.012,8.08,8.26,8.112
7.692,8.128,7.992,8,8.308,9.752,7.964,7.948,8.136,8.18
7.772,8.136,8.04,8.012,7.856,9.74,7.956,7.84,8.24,8.232
7.732,8.156,7.996,8.064,7.364,9.356,7.952,7.936,8.292,8.236
7.78,8.216,7.912,8.02,7.832,8.864,7.988,8.084,8.284,8.216
7.912,8.2,7.936,7.996,8.292,8.408,7.972,8,8.236,8.264
7.944,8.164,7.976,8.06,7.904,8.18,7.94,7.864,8.204,8.28
7.888,8.244,7.94,8.052,7.424,8.052,7.924,7.904,8.268,8.292
7.832,8.26,7.896,8.044,7.732,8.068,7.944,8.064,8.164,8.252
7.908,8.272,7.908,8.004,8.192,8.04,7.928,8.028,8.14,8.264
7.964,8.26,7.992,8.04,7.86,7.94,7.928,7.904,8.168,8.304
7.908,8.34,7.98,8.048,7.348,8.012,7.936,7.88,8.264,8.244
7.808,8.388,7.92,8.068,7.6,8.188,7.94,8.044,8.14,8.184
7.896,8.364,7.9,8.028,8.524,8.232,7.96,8.02,8.016,8.12
7.988,8.36,7.952,8.072,9.088,8.108,7.924,7.924,7.988,8.096
7.912,8.456,7.956,8.048,9.496,8.08,7.9,7.904,8.052,8.04
7.848,8.484,7.912,8.048,10.284,8.164,7.908,8.032,7.976,7.972
7.896,8.512,7.9,8.012,11.396,8.228,7.908,8.076,7.864,7.944
7.992,8.5,7.928,8.04,11.08,8.144,7.896,7.96,7.824,7.924
7.952,8.584,7.98,8.032,9.972,8.1,7.908,7.86,7.924,7.888
7.88,8.66,7.92,8.06,8.932,8.188,7.9,8,7.904,7.828
7.912,8.672,7.92,8.032,8.708,8.224,7.932,8.08,7.772,7.776
8.036,8.672,7.924,8.032,8.276,8.14,7.916,7.972,7.724,7.796
8.02,8.716,7.956,8.064,7.544,8.088,7.888,7.864,7.788,7.776
7.936,8.78,7.928,8.056,6.984,8.212,7.916,7.944,7.804,7.7
7.936,8.828,7.916,8.024,7.492,8.272,7.912,8.096,7.664,7.696
8.064,8.852,7.94,8.02,7.96,8.204,7.888,7.976,7.692,7.748
8.08,8.864,8.012,8.064,7.76,8.144,7.864,7.848,7.764,7.76
7.98,8.928,7.94,8.052,7.372,8.204,7.88,7.936,7.804,7.748
7.988,8.972,7.872,8.048,8.008,8.272,7.916,8.072,7.632,7.7
8.084,8.952,7.844,8.004,8.504,8.244,7.924,7.972,7.64,7.696
8.148,8.948,7.916,8.04,8.164,8.172,7.88,7.88,7.684,7.68
8.092,9,8.112,8.044,7.568,8.212,7.888,7.916,7.764,7.684
8.084,9.024,8.448,8.036,7.932,8.308,7.9,8.044,7.728,7.72
8.144,8.932,8.936,8.016,8.444,8.288,7.9,7.996,7.668,7.716
8.204,8.868,9.672,8.048,8.212,8.22,7.88,7.876,7.648,7.732
8.144,8.888,10.476,8.056,7.652,8.216,7.884,7.896,7.732,7.72
8.128,8.868,10.976,8.048,7.848,8.284,7.916,8.044,7.688,7.632
8.2,8.752,10.252,8.04,8.428,8.324,7.92,8.016,7.64,7.64
8.296,8.636,9.544,8.044,8.292,8.232,7.912,7.896,7.644,7.7
8.296,8.632,9.116,8.064,7.78,8.224,7.88,7.836,7.744,7.704
8.236,8.572,8.6,8.052,7.772,8.332,7.888,8.004,7.708,7.672
8.304,8.492,8.084,8.008,8.384,8.368,7.916,8.032,7.6,7.684
8.448,8.38,7.768,8.052,8.416,8.284,7.888,7.916,7.648,7.728
8.456,8.344,7.624,8.064,7.908,8.28,7.884,7.824,7.76,7.716
8.38,8.312,7.648,8.064,7.732,8.364,7.888,7.94,7.752,7.74
8.48,8.252,7.856,8.028,8.34,8.424,7.9,8.052,7.644,7.692
8.624,8.176,8.02,8.04,8.544,8.328,7.896,7.928,7.636,7.748
8.64,8.144,8.108,8.028,8.092,8.284,7.872,7.828,7.716,7.716
8.592,8.144,8.092,8.072,7.716,8.384,7.852,7.916,7.76,7.7
8.696,8.112,8.068,8.036,8.272,8.452,7.892,8.052,7.64,7.672
8.816,8.052,8.056,8.008,8.64,8.4,7.88,7.94,7.64,7.724
8.888,8.036,8.108,8.028,8.252,8.352,7.856,7.812,7.728,7.708
8.812,8.06,8.092,8.084,7.724,8.416,7.868,7.896,7.776,7.7
8.872,8.068,8.044,8.04,8.228,8.5,7.892,8.032,7.716,7.712
8.956,8.012,8.028,8.036,8.712,8.524,7.9,7.956,7.688,7.732
9.072,7.984,8.084,8.044,8.38,8.44,7.868,7.836,7.716,7.74
8.992,8.032,8.072,8.076,7.828,8.504,7.856,7.852,7.752,7.724
8.984,8.056,8.044,8.06,8.224,8.612,7.88,8.012,7.72,7.7
9.02,8.012,8.056,8.02,8.736,8.668,7.864,7.992,7.676,7.688
9.084,7.98,8.128,8.04,8.524,8.588,7.812,7.864,7.728,7.736
8.928,8.044,8.1,8.076,7.96,8.604,7.864,7.844,7.768,7.74
8.8,8.056,8.036,8.06,8.204,8.724,7.848,8.008,7.732,7.692
8.756,8.02,8.072,8.044,8.772,8.756,7.856,8.024,7.688,7.7
8.728,7.98,8.116,8.064,8.688,8.68,7.848,7.916,7.7,7.744
8.548,8.012,8.148,8.076,8.14,8.712,7.848,7.848,7.752,7.732
8.384,8.052,8.072,8.064,8.228,8.8,7.828,7.976,7.736,7.752
8.348,8.02,8.092,8.028,8.812,8.888,7.864,8.032,7.632,7.744
8.336,8.012,8.1,8.044,8.876,8.796,7.844,7.924,7.692,7.768
8.248,8.016,8.172,8.06,8.372,8.792,7.832,7.84,7.832,7.768
8.08,8.06,8.14,8.076,8.248,8.896,7.848,7.968,7.864,7.732
8.044,8.036,8.12,8.032,8.872,8.976,7.848,8.044,7.74,7.772
8.08,7.988,8.124,8.02,9.136,8.856,7.852,7.896,7.76,7.824
8.06,8.016,8.208,8.076,8.672,8.784,7.82,7.836,7.872,7.816
7.916,8.06,8.196,8.064,8.368,8.84,7.848,7.952,7.932,7.752
7.9,8.044,8.14,8.052,8.96,8.86,7.852,8.04,7.86,7.796
7.956,7.988,8.176,8.044,9.356,8.748,7.816,7.94,7.844,7.844
7.952,7.972,8.248,8.076,8.972,8.656,7.812,7.832,7.956,7.876
7.844,8.044,8.208,8.092,8.508,8.616,7.82,7.9,8.02,7.924
7.852,8.06,8.168,8.068,8.992,8.624,7.828,8.064,7.92,7.884
7.92,8,8.208,8.036,9.548,8.54,7.848,7.988,7.912,7.912
7.936,7.996,8.272,8.068,9.216,8.416,7.84,7.872,7.98,7.916
7.848,8.028,8.284,8.096,8.704,8.372,7.824,7.908,8.032,7.824
7.824,8.068,8.284,8.08,9.096,8.408,7.82,8.04,7.956,7.78
7.884,8.016,8.308,8.06,9.62,8.344,7.864,8.024,7.868,7.808
7.92,7.976,8.368,8.12,9.384,8.208,7.856,7.892,7.888,7.832
7.88,8.024,8.392,8.112,8.816,8.192,7.84,7.872,7.948,7.772
7.816,8.052,8.38,8.124,8.964,8.228,7.864,8.02,7.856,7.744
7.864,8.028,8.364,8.08,9.452,8.228,7.864,8.02,7.768,7.736
7.932,7.96,8.456,8.12,9.252,8.1,7.84,7.928,7.752,7.732
7.904,7.996,8.532,8.124,8.624,8.08,7.828,7.884,7.812,7.696
7.816,8.02,8.524,8.14,8.564,8.16,7.848,7.996,7.808,7.628
7.868,7.996,8.54,8.136,9.036,8.172,7.836,8.04,7.66,7.648
7.964,7.96,8.644,8.208,8.94,8.088,7.816,7.928,7.648,7.684
7.9,7.98,8.736,8.216,8.344,8.048,7.848,7.86,7.716,7.708
7.808,8.044,8.696,8.284,8.092,8.132,7.872,8,7.732,7.664
7.844,8.024,8.752,8.264,8.532,8.16,7.88,8.084,7.644,7.672
7.96,7.972,8.844,8.26,8.684,8.068,7.86,8.004,7.644,7.656
7.936,7.976,8.948,8.188,8.14,8.004,7.82,7.92,7.716,7.656
7.848,8.012,8.948,8.196,7.72,8.076,7.832,8.06,7.712,7.676
7.84,8.044,8.972,8.14,8.208,8.152,7.852,8.2,7.56,7.664
7.932,7.976,9.008,8.072,8.504,8.084,7.88,8.116,7.592,7.676
7.948,7.956,9.096,8.12,8.048,8.012,7.836,7.988,7.708,7.68
7.852,8.012,9.096,8.12,7.524,8.072,7.816,8.072,7.768,7.656
7.828,8.008,9.088,8.1,7.952,8.124,7.876,8.212,7.656,7.668
7.892,7.96,9.1,8.068,8.42,8.072,7.888,8.136,7.612,7.64
7.944,7.968,9.156,8.12,8.072,7.996,7.86,8.036,7.68,7.536
7.868,7.988,9.132,8.132,7.52,8.044,7.86,8.044,7.724,7.472
7.836,8.016,9.012,8.06,7.8,8.092,7.872,8.192,7.624,7.608
7.864,7.98,8.96,8.016,8.324,8.108,7.848,8.108,7.548,7.928
7.94,7.956,8.94,8.052,8.084,8.008,7.832,8,7.568,8.46
7.896,7.98,8.88,8.04,7.516,8.024,7.86,7.996,7.752,9.104
7.804,8.02,8.688,8.024,7.708,8.108,7.852,8.148,8.064,9.688
7.836,7.972,8.604,8.008,8.268,8.116,7.876,8.112,8.404,10.248
8,7.94,8.58,8.056,8.144,8.016,7.844,7.96,8.792,10.756
7.904,7.984,8.524,8.032,7.608,8.008,7.84,7.872,9.48,10.888
7.792,8.012,8.404,8.048,7.66,8.116,7.864,8.028,10.248,10.78
7.828,7.984,8.324,8.004,8.2,8.168,7.868,7.988,10.792,9.896
7.924,7.936,8.252,8.052,8.24,8.072,7.856,7.86,10.316,8.616
7.904,7.976,8.272,8.056,7.704,8.04,7.864,7.772,8.944,7.836
7.812,8.012,8.192,8.072,7.568,8.12,7.86,7.908,8.224,7.56
7.816,8.012,8.104,8.052,8.112,8.16,7.892,8.008,7.824,7.468
7.888,7.968,8.096,8.032,8.336,8.068,7.88,7.876,7.696,7.572
7.884,7.972,8.128,8.024,7.836,8.02,7.852,7.78,7.788,7.636
7.8,8,8.08,7.988,7.504,8.116,7.848,7.88,7.868,7.656
7.812,8,8.036,7.976,7.984,8.128,7.876,7.988,7.748,7.76
7.864,7.976,8.016,8.072,8.388,8.116,7.856,7.884,7.656,7.728
7.924,7.964,8.072,8.328,7.94,8.032,7.864,7.784,7.68,7.752
7.816,8.028,8.008,8.804,7.444,8.1,7.88,7.876,7.712,7.684
7.796,8.008,7.992,9.316,7.876,8.148,7.88,7.992,7.612,7.668
7.876,7.968,7.992,9.884,8.372,8.112,7.86,7.928,7.532,7.704
7.944,7.952,8.036,10.568,8.032,8.028,7.848,7.828,7.58,7.728
7.86,8.008,8.036,10.652,7.508,8.064,7.864,7.852,7.668,7.708
7.776,7.992,7.98,9.812,7.788,8.132,7.888,8.004,7.616,7.708
7.792,7.976,7.96,8.996,8.352,8.16,7.868,7.964,7.556,7.716
7.928,7.92,8.032,8.54,8.116,8.024,7.836,7.852,7.556,7.708
7.836,7.988,8.04,8.06,7.556,8.032,7.856,7.744,7.644,7.708
7.764,8.016,7.988,7.736,7.724,8.128,7.852,7.764,7.62,7.668
7.836,7.984,7.96,7.512,8.284,8.152,7.872,7.692,7.56,7.676
7.932,7.936,8.012,7.516,8.192,8.048,7.836,7.764,7.572,7.708
7.856,7.988,8.068,7.536,7.648,8.012,7.848,8.004,7.688,7.732
7.776,8,7.98,7.5,7.668,8.104,7.856,8.512,7.68,7.764
7.816,8,7.96,7.544,8.232,8.16,7.888,9.152,7.584,7.76
7.924,7.96,8.012,7.696,8.268,8.064,7.848,9.604,7.608,7.74
7.876,7.976,8.028,7.776,7.724,8.036,7.824,10.232,7.7,7.752
7.78,8.024,8.012,7.848,7.544,8.1,7.868,10.948,7.712,7.72
7.808,8.008,7.948,7.94,8.072,8.152,7.892,10.876,7.6,7.732
7.904,7.964,7.976,8.024,8.324,8.052,7.86,9.728,7.612,7.768
7.9,7.976,8.04,8.08,7.848,8.008,7.836,8.792,7.68,7.772
7.796,8.012,7.996,8.116,7.496,8.076,7.864,8.456,7.72,7.76
7.796,8.02,7.984,8.144,8,8.152,7.864,8.296,7.616,7.776
7.872,7.96,7.984,8.116,8.34,8.084,7.852,8.04,7.656,7.8
7.92,7.968,8.032,8.184,7.948,8.02,7.86,7.864,7.744,7.784
7.872,8,8.012,8.204,7.428,8.064,7.852,8.012,7.78,7.808
7.892,8.024,7.944,8.192,7.86,8.116,7.884,8.208,7.688,7.816
7.968,7.98,7.956,8.2,8.312,8.108,7.908,8.148,7.676,7.84
8.04,7.94,8.06,8.208,8.008,8.032,7.864,8,7.764,7.868
7.992,8.004,8.028,8.256,7.448,8.024,7.852,8.008,7.824,7.86
7.952,8.02,7.984,8.232,7.78,8.104,7.916,8.136,7.788,7.872
8.044,7.984,7.972,8.208,8.316,8.128,7.924,8.084,7.732,7.876
8.136,7.944,8.012,8.268,8.064,8.008,7.98,8,7.808,7.916
8.048,8.004,8.02,8.28,7.516,8.024,8.028,7.964,7.856,7.908
7.968,8.012,7.952,8.268,7.7,8.084,8.112,8.104,7.816,7.928
8,7.984,7.98,8.256,8.236,8.144,8.1,8.084,7.756,7.932
8.08,7.948,7.992,8.28,8.108,8.008,8.024,7.988,7.796,7.976
8.032,8,8.044,8.304,7.6,7.996,8.012,7.944,7.912,8.02
7.904,8.016,7.984,8.316,7.592,8.088,8.04,8.1,7.936,8.02
7.924,7.984,7.96,8.284,8.184,8.128,8.068,8.132,7.816,8.056
8.012,7.948,7.964,8.328,8.192,8.024,8.092,8.012,7.812,8.096
7.956,8.004,8.04,8.34,7.712,8.008,8.056,7.928,7.924,8.152
7.808,8.036,7.964,8.336,7.5,8.08,8.048,8.072,7.94,8.132
7.812,8.032,7.932,8.312,8.044,8.12,8.02,8.176,7.876,8.156
7.888,7.988,7.984,8.336,8.276,8.048,7.928,8.052,7.916,8.204
7.888,8.004,8.016,8.356,7.828,7.984,7.924,7.968,7.992,8.252
7.812,8.12,7.984,8.372,7.444,8.044,7.904,8.088,8.032,8.244
7.78,8.096,7.928,8.356,7.936,8.132,7.94,8.208,7.968,8.312
7.832,8.06,7.968,8.344,8.34,8.068,7.932,8.104,7.964,8.34
7.864,8.02,8.016,8.4,7.904,8.008,7.9,8.008,8.072,8.38
7.78,8.1,7.988,8.428,7.408,8.068,7.884,8.088,8.132,8.368
7.78,8.16,7.944,8.42,7.812,8.112,7.904,8.204,8.036,8.34
7.828,8.16,7.968,8.42,8.328,8.072,7.848,8.14,8.016,8.388
7.896,8.116,7.984,8.464,7.976,8.008,7.816,8.052,8.072,8.356
7.844,8.116,7.972,8.508,7.416,8.032,7.792,8.04,8.148,8.296
7.78,8.128,7.936,8.492,7.74,8.112,7.804,8.196,8.096,8.248
7.768,8.076,7.916,8.46,8.3,8.132,7.816,8.164,7.984,8.2
7.796,8.004,8,8.556,8.04,8.008,7.812,8.08,7.948,8.168
7.924,8.06,8,8.612,7.488,8.012,7.8,8.08,8.036,8.08
8.212,8.06,7.932,8.588,7.668,8.084,7.82,8.24,7.984,8.04
8.764,8.008,7.928,8.596,8.228,8.116,7.836,8.268,7.852,7.98
9.476,7.972,7.988,8.672,8.1,8.004,7.784,8.132,7.824,7.972
10.168,8.024,7.992,8.688,7.612,8.008,7.804,8.1,7.856,7.952
10.74,8.052,7.952,8.74,7.592,8.092,7.804,8.252,7.788,7.908
11.136,7.972,7.92,8.732,8.14,8.136,7.812,8.316,7.66,7.832
10.652,7.92,7.936,8.836,8.2,8.048,7.82,8.216,7.636,7.836
9.34,7.928,7.992,8.868,7.728,8.004,7.784,8.132,7.7,7.82
8.204,7.976,7.964,8.916,7.516,8.092,7.848,8.284,7.676,7.796
7.76,7.984,7.924,8.912,8.024,8.104,7.856,8.388,7.56,7.772
7.796,7.924,7.94,8.992,8.292,8.04,7.832,8.3,7.56,7.784
7.856,7.952,8.008,9.04,7.796,7.976,7.828,8.236,7.608,7.76
7.816,7.984,7.968,9.152,7.452,8.072,7.828,8.336,7.632,7.768
7.832,7.988,7.916,9.172,7.928,8.12,7.832,8.48,7.516,7.772
7.964,7.952,7.928,9.216,8.356,8.08,7.848,8.404,7.488,7.78
8.012,7.956,7.992,9.292,7.94,8.004,7.832,8.34,7.576,7.776
7.944,7.952,7.936,9.376,7.444,8.06,7.864,8.432,7.624,7.736
7.916,7.864,7.916,9.4,7.816,8.104,7.88,8.592,7.532,7.752
7.988,7.768,7.96,9.396,8.32,8.088,7.852,8.576,7.484,7.772
8.016,7.852,7.984,9.444,7.964,8.008,7.768,8.5,7.544,7.772
7.964,8.096,7.968,9.508,7.452,8.032,7.688,8.544,7.604,7.76
7.892,8.468,7.92,9.536,7.728,8.096,7.616,8.712,7.516,7.748
7.972,8.932,7.952,9.544,8.268,8.116,7.688,8.708,7.456,7.76
8.024,9.496,7.98,9.564,8.008,8.024,7.976,8.644,7.496,7.772
7.988,10.14,7.948,9.568,7.548,8.012,8.768,8.648,7.596,7.764
7.924,10.288,7.928,9.54,7.704,8.076,10.048,8.82,7.544,7.748
7.968,9.752,7.924,9.456,8.24,8.104,11.384,8.86,7.504,7.752
8.1,9.12,7.944,9.444,8.084,7.992,12.616,8.796,7.544,7.756
8.012,8.716,8,9.36,7.636,7.996,13.188,8.78,7.644,7.78
7.948,8.252,7.936,9.268,7.592,8.072,12.1,8.94,7.608,7.772
7.996,7.852,7.9,9.192,8.152,8.124,10.164,9.028,7.524,7.756
8.088,7.76,7.96,9.104,8.228,8.02,8.504,8.924,7.544,7.788
8.068,7.88,8.004,9.012,7.728,7.976,7.876,8.844,7.624,7.788
7.984,7.988,7.956,8.924,7.524,8.06,7.792,8.968,7.668,7.764
8.02,8.044,7.96,8.792,8.036,8.112,7.776,9.016,7.572,7.748
8.12,8.008,7.98,8.7,8.328,8.036,7.824,8.856,7.612,7.792
8.132,8.06,8.052,8.592,7.828,7.976,7.876,8.736,7.668,7.8
8.068,8.084,8,8.556,7.464,8.052,7.988,8.776,7.712,7.752
8.064,8.072,8.008,8.444,7.928,8.096,8.08,8.82,7.636,7.74
8.16,8.02,8.044,8.36,8.384,8.072,8.08,8.636,7.628,7.804
8.228,8.02,8.06,8.34,7.972,7.996,8.036,8.468,7.712,7.792
8.144,8.06,8.084,8.332,7.512,8.024,8.016,8.44,7.8,7.768
8.108,8.06,8.024,8.268,7.92,8.108,8.004,8.492,7.704,7.752
8.2,8.032,8.064,8.2,8.4,8.084,7.968,8.38,7.692,7.752
8.296,8,8.116,8.212,8.008,7.964,7.948,8.224,7.74,7.78
8.248,8.068,8.188,8.18,7.52,7.988,7.96,8.184,7.812,7.764
8.196,8.088,8.176,8.156,7.852,8.064,7.988,8.284,7.744,7.772
8.272,8.056,8.16,8.084,8.408,8.112,7.968,8.204,7.712,7.756
8.376,8.032,8.208,8.124,8.16,8.012,7.988,8.076,7.76,7.788
8.352,8.052,8.176,8.108,7.664,8,7.96,8.016,7.832,7.776
8.312,8.104,8.1,8.096,7.828,8.06,7.98,8.132,7.764,7.764
8.372,8.076,8.124,8.052,8.348,8.124,7.984,8.156,7.7,7.768
8.492,8.04,8.168,8.096,8.216,8.004,7.972,8.028,7.744,7.784
8.476,8.068,8.16,8.1,7.712,7.976,7.98,7.944,7.844,7.8
8.436,8.092,8.088,8.052,7.72,8.064,8.02,8.088,7.884,7.76
8.516,8.08,8.076,8.068,8.24,8.116,8.024,8.148,7.824,7.78
8.648,8.06,8.06,8.056,8.352,8.076,7.976,7.996,7.856,7.772
8.696,8.088,8.072,8.088,7.86,8.028,8.004,7.94,7.896,7.76
8.664,8.14,8.028,8.096,7.636,8.124,8.036,8.064,7.928,7.732
8.712,8.124,7.952,8.032,8.076,8.176,8.048,8.152,7.884,7.744
8.876,8.08,7.952,8.056,8.32,8.116,8.04,8.028,7.892,7.776
8.896,8.104,7.996,8.044,7.792,8.096,8.044,7.936,8,7.784
